1\1\GINC-NODE-007\Freq\RwB97XD\def2SVP\C8H8N2O4\JP2658\30-Dec-2023\0\\# wb97xd d
ef2svp scrf=(iefpcm,solvent=toluene) freq=noraman\\cyclic-1_1_opt_hf_re5.out\\0,
1\C,-1.70512,-0.15704,0.14517\C,0.28776,2.97266,-0.30923\C,-0.48099,-1.74661,1.0
471\C,1.06085,2.01212,-0.81713\N,-1.08306,-0.548,1.24532\H,-0.15701,3.74359,-0.9
4109\H,0.07813,3.00544,0.7635\H,0.10157,-2.24444,1.81224\H,1.29459,1.95278,-1.88
225\O,-1.54868,-1.06069,-0.80241\C,-0.73499,-2.14498,-0.29022\O,-0.4427,-3.07104
,-0.99502\C,1.64742,0.96386,0.0573\O,1.43849,0.84848,1.24463\O,2.43317,0.14445,-
0.63553\C,3.03761,-0.93276,0.06731\H,3.75921,-1.38154,-0.62305\H,2.27854,-1.6773
7,0.34626\H,3.54446,-0.57376,0.97337\C,-2.44672,1.03328,-0.02362\N,-3.0515,2.014
73,-0.14371\H,-0.99469,0.01546,2.0864\\Version=ES64L-G16RevC.01\State=1-A\HF=-71
9.2318757\RMSD=4.868e-09\RMSF=5.421e-06\ZeroPoint=0.1593453\Thermal=0.1733981\ET
ot=-719.0584776\HTot=-719.0575334\GTot=-719.1167562\Dipole=0.8321907,0.6981646,1
.5884356\DipoleDeriv=-0.181197,0.6657578,-0.0709292,0.6667502,-0.6697556,0.43584
13,-0.0751472,0.5409513,0.6859801,-0.0512539,-0.1885984,-0.002293,-0.1224423,0.0
172151,-0.0317651,-0.0602672,0.0657349,0.0196453,-0.4349323,0.0723628,-0.0960436
,0.5702541,-1.1169596,0.3106855,0.5512024,-0.9319883,-0.2336271,-0.3046406,0.153
3161,-0.089229,0.1588543,-0.5134231,0.0972559,-0.083258,0.0224854,0.0308998,0.41
47381,-0.7335324,0.2223146,-0.7656565,0.9580719,-0.480515,0.1409157,-0.4752637,-
0.3888483,0.0964646,0.0633413,-0.0107755,0.0433857,0.0669487,0.0254996,-0.019930
2,0.0469574,0.0545791,0.116388,0.038535,0.0056738,0.0145696,0.1231484,0.0353805,
0.0363775,-0.000823,-0.0070288,0.1972422,0.0584115,-0.0372002,0.0424236,0.158637
6,-0.0525601,-0.0262617,-0.0544483,0.1274125,0.1193061,0.0531291,0.0275669,0.043
0423,0.0990841,-0.0097251,0.024045,0.0163367,-0.0076231,-0.2074342,0.0855657,0.1
180578,-0.2047969,-0.1603269,-0.439227,-0.3213594,0.2974756,-0.5406784,0.3739198
,-0.1571449,-0.2906256,-0.4469051,1.8884813,0.9034441,-0.7046336,1.8342611,1.036
0109,-0.5118838,0.2499437,0.1701727,0.3747519,-1.5655764,-0.5827071,0.3840848,-1
.0616395,-0.8821192,1.1522754,-0.7693118,-0.2161783,-0.7484484,1.447464,-0.02698
31,-0.424468,0.0048568,1.300669,-0.6751415,0.1213876,0.032251,0.0399363,-0.67188
63,0.127323,0.2187386,0.1036489,-1.1147033,-0.9524994,0.7139865,0.1692013,0.7216
537,-1.1913266,-0.091352,0.215669,-0.1106191,-0.6434101,0.4954402,-0.2808575,0.0
434342,-0.2456963,0.6549989,-0.0750957,0.1514191,-0.1861417,0.2963563,-0.0071763
,0.0850582,0.0406992,0.0465575,0.0310848,-0.0062084,0.0863323,-0.0405339,0.01484
05,-0.0118877,-0.0791078,0.0311463,-0.0003187,-0.0467935,0.0169614,-0.0310252,0.
0695921,0.0535074,0.0223569,0.0296519,-0.0313107,-0.0203092,-0.0163049,-0.065559
2,-0.1169289,0.0259815,-0.0118079,0.5238459,-0.4616974,0.0651115,-0.459579,0.940
4072,-0.216681,0.0670093,-0.2248143,0.0678084,-0.5163396,0.2317468,-0.0375568,0.
231639,-0.7228545,0.096163,-0.0224408,0.0576154,-0.2969027,0.342409,0.0480562,-0
.0434872,0.0603343,0.2896654,0.0298247,0.0099265,0.0003745,0.4390394\Polar=109.7
530868,-56.7814336,160.5706788,4.293118,-2.7390843,95.6250821\Quadrupole=1.10475
24,-6.0233113,4.918559,0.2591762,-4.5278841,-7.5425537\PG=C01 [X(C8H8N2O4)]\NIma
g=1\\0.35090011,-0.30476699,0.67647368,0.19022470,0.04077614,0.67493860,-0.00015
240,-0.00041380,-0.00013137,0.39099890,-0.00037140,-0.00026413,0.00021472,-0.349
05297,0.60914975,0.00009942,0.00029281,0.00017101,-0.10435676,0.01016493,0.67982
275,-0.01743263,0.05114158,-0.03291624,0.00013977,-0.00008340,0.00018614,0.33748
263,0.07133801,-0.07904722,0.03802306,-0.00037542,-0.00012984,0.00002533,-0.2840
5615,0.56868033,-0.00499459,-0.01651045,-0.01412821,-0.00025321,-0.00006914,-0.0
0000764,0.23549724,-0.01914570,0.67768743,0.00041341,-0.00011218,-0.00012647,-0.
23250161,0.22532763,0.11390639,0.00053455,-0.00057323,-0.00034194,0.38459264,0.0
0018253,-0.00009260,-0.00042225,0.22428614,-0.33742650,-0.12501912,-0.00017124,-
0.00015821,-0.00005064,-0.32950103,0.56468871,0.00029990,-0.00039598,0.00013412,
0.11644750,-0.12924260,-0.19098243,0.00024155,-0.00047006,-0.00037668,-0.1545758
1,0.06693168,0.70124317,-0.13800694,0.03104963,-0.16059933,-0.00028278,0.0001464
2,-0.00011411,-0.12547289,0.11351417,-0.01856390,-0.00063140,0.00029977,-0.00056
729,0.32156427,0.04335490,-0.08887756,0.08523022,0.00055269,0.00009400,0.0000213
4,0.12870364,-0.28960836,-0.02649011,0.00090830,0.00037479,0.00052083,-0.2067534
2,0.66817099,-0.13290027,0.05068747,-0.34660327,-0.00006377,-0.00000089,0.000008
68,-0.00589758,-0.04780968,-0.13086048,-0.00008525,0.00009138,-0.00023487,0.2149
4878,0.21384893,0.91645987,-0.00005899,-0.00005247,0.00004053,-0.09377014,0.0916
5039,-0.06761337,-0.00001890,0.00007170,0.00003068,0.00047898,0.01333293,-0.0112
1212,0.00007946,-0.00005483,0.00000583,0.08630017,-0.00012403,0.00000043,0.00006
327,0.09197851,-0.19770636,0.12299893,-0.00010596,0.00018989,0.00010595,0.008515
69,-0.00763415,0.01531990,0.00013278,-0.00018276,0.00001799,-0.10358604,0.200829
91,0.00003251,-0.00002547,-0.00003943,-0.07048661,0.12777420,-0.16086919,0.00005
196,-0.00014900,-0.00005454,0.00772627,-0.01188676,0.01156580,-0.00004727,0.0000
9583,-0.00000008,0.07225609,-0.13253702,0.15749158,-0.00002444,0.00015596,-0.000
08749,-0.05608552,0.00862953,0.05341554,-0.00012372,0.00027690,0.00017308,0.0033
7894,0.00143749,0.01899711,0.00011610,-0.00029666,0.00006591,0.00574805,0.000398
29,-0.01071204,0.04608669,-0.00002295,0.00010436,-0.00020368,0.00817993,-0.05156
491,-0.00266348,0.00005154,0.00000273,0.00007247,0.00537620,0.00595443,-0.023279
69,0.00010936,-0.00003287,0.00004204,-0.00347164,0.00460316,0.01805201,-0.013143
11,0.04201374,-0.00012181,-0.00001477,-0.00019120,0.05665957,-0.00690374,-0.3378
5165,-0.00011438,0.00027986,0.00017378,0.00173691,0.00114871,-0.00722914,0.00019
700,-0.00028026,0.00013260,0.00466549,-0.00352663,-0.00784938,-0.06272677,0.0082
5761,0.35307563,0.00285016,0.00118660,0.00078744,0.00001413,0.00001749,-0.000065
25,-0.12017488,0.09538756,-0.13439354,-0.00010060,0.00008099,-0.00002893,-0.0078
7970,0.00164981,-0.00710069,-0.00000534,0.00001004,-0.00000063,0.00001657,-0.000
01031,0.00000950,0.12462575,0.00138169,-0.00252799,-0.00538920,0.00001822,0.0000
1966,-0.00006121,0.09172249,-0.11052730,0.09255084,-0.00007972,0.00007634,-0.000
06275,0.01330237,-0.01203168,0.02289373,-0.00000538,0.00000718,-0.00000103,0.000
01328,-0.00001376,0.00000925,-0.09876753,0.11380759,0.00119999,-0.00597566,-0.00
203094,-0.00002328,-0.00001699,0.00005009,-0.13797338,0.10165383,-0.22094247,0.0
0006240,-0.00005499,-0.00000250,0.00965513,-0.00634070,0.01155053,0.00000827,-0.
00000176,-0.00000508,0.00000026,0.00001266,0.00000806,0.13818399,-0.10546062,0.2
1591756,-0.00006169,0.00014682,0.00015745,0.00180331,0.00140158,0.01828831,-0.00
001041,0.00009656,0.00004918,-0.05767589,0.01116196,0.06247113,0.00006044,-0.000
09952,-0.00001799,-0.00470170,-0.00416248,-0.00103330,0.00585737,0.00739076,0.00
186234,-0.00000641,-0.00001748,0.00000641,0.05027718,-0.00004139,0.00013020,0.00
016136,0.00601294,0.00356329,-0.02361988,-0.00010237,0.00015545,0.00004804,0.011
25341,-0.05018036,-0.01214661,0.00003997,-0.00021668,-0.00003753,-0.00413074,-0.
00196044,-0.00052701,0.00741901,0.00101214,-0.00010315,0.00001463,0.00001554,-0.
00000830,-0.01683149,0.04611994,-0.00001570,-0.00010748,-0.00018791,0.00038637,0
.00197625,-0.00364228,0.00009678,-0.00011007,-0.00001515,0.06158771,-0.01113228,
-0.33657822,-0.00003815,0.00012186,0.00005886,-0.00102844,-0.00073899,0.00053273
,0.00164829,0.00041930,0.00098807,-0.00001265,-0.00001691,0.00000977,-0.06812047
,0.01347230,0.35029724,-0.06047297,0.02167415,0.01663622,-0.00012728,0.00007233,
0.00004758,-0.01307593,-0.00708888,-0.04911428,0.00000398,-0.00019399,-0.0001476
4,-0.00502255,0.02952293,-0.02303135,-0.00001525,0.00000441,-0.00001890,0.000041
57,-0.00000507,0.00003116,0.00324081,-0.00106161,-0.00527562,0.00003410,0.000097
26,-0.00005096,0.13531826,0.00336203,-0.16871938,-0.16182147,0.00021193,0.000253
32,-0.00009176,0.01350723,0.02461517,0.07504151,0.00013616,-0.00007240,0.0002342
0,0.03430094,-0.05662805,-0.03619608,0.00003370,-0.00002204,0.00007410,-0.000102
44,0.00003945,-0.00008655,0.00185262,0.00402460,0.00375056,0.00001917,-0.0000470
7,0.00005888,-0.08232852,0.31801771,-0.01082770,-0.11237565,-0.25176448,0.000279
04,-0.00009249,0.00000722,-0.01878841,0.01913723,-0.01697746,0.00036237,0.000169
14,0.00017735,-0.01789912,-0.04297879,-0.09741268,-0.00003136,-0.00007865,0.0000
3825,-0.00008959,0.00005108,-0.00005790,-0.00064170,-0.00410180,-0.00411892,-0.0
0015383,-0.00018083,0.00013108,0.05785719,0.16219111,0.46825075,-0.01823388,0.06
300854,0.02758367,0.00005492,0.00009145,-0.00013057,-0.08769974,0.01641104,-0.03
797108,-0.00005222,0.00015796,0.00017918,0.02172147,-0.02256212,0.00780612,-0.00
000826,0.00001141,0.00004612,-0.00003486,0.00001009,-0.00004734,-0.00154278,-0.0
0735479,-0.00635972,0.00004423,-0.00003005,0.00000835,-0.04617200,-0.03337103,-0
.02596570,0.23913087,0.02994974,-0.07165259,-0.03944633,0.00042515,-0.00016310,-
0.00018068,0.00773909,-0.11443275,-0.05443795,0.00035750,0.00056316,0.00033203,-
0.00304416,-0.01002280,-0.02586852,-0.00010951,-0.00008571,-0.00001205,-0.000053
37,-0.00015483,-0.00011012,-0.00150722,0.00705116,0.01163231,-0.00021277,0.00000
221,-0.00004958,-0.02630634,-0.01765747,-0.01147493,-0.13234142,0.68338880,-0.02
181980,0.04848577,0.02041560,0.00034348,0.00016280,-0.00018550,-0.05131624,-0.03
841263,-0.25846835,0.00026895,-0.00002178,0.00052931,0.04021948,-0.08169740,-0.0
1472362,-0.00008485,-0.00015752,0.00011590,-0.00023440,-0.00018538,-0.00032436,0
.00315792,-0.00272655,-0.00158013,-0.00006956,0.00009840,-0.00009190,-0.01653342
,-0.02726467,-0.14271998,-0.05265572,0.44154378,0.74568647,-0.00090877,0.0000027
5,-0.00371945,0.00004386,-0.00000648,0.00003748,0.01958326,-0.00255634,0.0037824
4,0.00014431,-0.00007747,0.00003630,0.00002950,0.00536566,-0.00321270,-0.0000152
9,-0.00003472,0.00000047,-0.00002959,-0.00002741,-0.00003622,-0.00044290,0.00029
659,0.00047355,-0.00003259,0.00003074,-0.00001946,-0.01067666,0.04511640,0.01567
318,-0.10862522,0.12230541,0.08933128,0.09861915,0.00681202,-0.00941474,0.002692
36,-0.00026010,0.00003629,0.00006934,0.00268832,-0.00856029,-0.03931608,-0.00022
355,-0.00020505,-0.00021964,0.00174488,0.00023854,-0.00146094,0.00006557,0.00008
858,-0.00002039,0.00010449,0.00012604,0.00014125,-0.00021536,-0.00067122,0.00014
065,0.00011198,0.00000187,0.00003356,0.03962788,-0.06319266,-0.00980979,0.123088
59,-0.47733790,-0.32329711,-0.17293974,0.55851501,0.00651439,-0.01558747,-0.0050
1296,-0.00019764,-0.00003521,0.00008005,0.01077629,-0.04960962,-0.03602422,-0.00
016077,-0.00006338,-0.00027564,-0.00909396,0.00820569,-0.00723086,0.00005183,0.0
0007671,-0.00003746,0.00010539,0.00011843,0.00015261,-0.00012363,0.00064794,0.00
087107,0.00005229,-0.00006232,0.00005516,0.00772857,0.00403618,0.03676513,0.0900
5420,-0.32374222,-0.34729225,-0.10355850,0.37373383,0.35750405,-0.00271462,0.001
82276,-0.00190973,-0.00783058,0.01934141,-0.00703716,-0.00025679,0.00121618,0.00
203949,-0.10379251,0.03947105,-0.03751132,0.00055440,-0.00284965,0.00165184,0.00
824072,0.00744274,0.00300342,-0.00662086,-0.00348596,-0.00157502,0.00018982,-0.0
0003734,-0.00008306,0.00443632,-0.00675704,0.00746563,0.00032855,0.00012885,-0.0
0026043,0.00081466,-0.00368154,-0.00402804,-0.00111319,0.00250353,0.00238607,0.3
9396709,0.00122047,-0.00257265,0.00209808,0.01909072,-0.02283417,0.00721676,0.00
238794,-0.00249066,-0.00229177,0.03603182,-0.15012659,0.06664670,-0.00426733,0.0
0311012,-0.00128144,0.00683647,0.00414753,-0.00017257,-0.00435722,-0.00353104,0.
00063024,-0.00054429,-0.00035891,0.00032905,-0.00246906,0.00545184,-0.00695217,-
0.00007276,0.00190805,0.00049520,-0.00063121,-0.00016646,0.00292900,0.00077467,-
0.00097794,-0.00133701,-0.19096278,0.50509838,0.00113632,0.00064265,0.00510849,-
0.00309505,0.00030489,0.01899210,-0.00374180,0.00307401,0.00000404,-0.02209482,0
.04693706,-0.14592530,-0.00056607,-0.00419027,-0.00148301,0.00439435,-0.00195754
,-0.00252669,0.00135553,-0.00326938,-0.00210551,0.00036043,0.00069272,-0.0002556
3,-0.01089797,0.01868775,-0.01140626,0.00131187,-0.00239111,-0.00303775,-0.00168
456,0.00435117,0.00375371,0.00126674,-0.00273856,-0.00267653,-0.12214185,-0.0947
1323,1.00499926,0.00145233,-0.00076341,0.00358096,-0.00105243,0.00172239,-0.0009
0596,-0.00225509,0.00067681,-0.00059956,0.01831476,0.00464531,-0.00998453,-0.005
07059,-0.00343558,-0.00123568,-0.00078853,-0.00104236,-0.00089528,0.00075286,-0.
00025686,-0.00083244,0.00004751,0.00020380,-0.00013907,0.00053573,0.00309486,-0.
00150274,0.00056737,-0.00100277,-0.00128766,-0.00077065,0.00267247,0.00251185,0.
00067788,-0.00178282,-0.00164866,-0.10901291,0.00570602,0.09742062,0.09495052,-0
.00012560,0.00150597,0.00073478,-0.00049870,-0.00032277,0.00268264,-0.00393020,0
.00114682,0.00082796,0.00221844,0.00562087,0.03470942,-0.00077907,-0.00482146,0.
00018396,-0.00093636,-0.00025391,0.00055822,-0.00034952,0.00057507,0.00086159,0.
00047242,0.00053248,-0.00045396,0.00359252,-0.00363195,0.00334622,0.00058038,-0.
00153990,-0.00125525,-0.00062564,0.00189880,0.00091262,0.00026422,-0.00094854,-0
.00073003,0.00633112,-0.11330180,0.07448812,-0.02401318,0.09439232,-0.00043031,-
0.00009343,-0.00272088,0.00596964,-0.00684378,-0.00506939,0.00198454,-0.00175830
,0.00005272,-0.00286735,0.02485548,-0.04335318,0.00106926,0.00271073,0.00107488,
-0.00089121,0.00013677,0.00110557,-0.00113629,0.00145396,0.00123779,-0.00022345,
-0.00047149,0.00008668,-0.00273001,0.00498438,-0.00220076,-0.00060938,0.00136415
,0.00190392,0.00096816,-0.00249706,-0.00198108,-0.00070388,0.00141182,0.00148292
,0.09877800,0.07736668,-0.71281034,-0.14355071,-0.07085945,0.83343883,0.00125580
,-0.00111433,0.00129635,0.00102664,0.00126218,-0.00522303,0.00032015,-0.00048524
,-0.00104158,-0.01558916,0.03196728,0.01160549,-0.00085681,0.00111316,-0.0008733
7,-0.00112478,0.00049602,0.00031987,0.00080901,-0.00072153,0.00031021,-0.0001214
9,0.00007506,0.00008978,-0.00062212,0.00004344,-0.00021042,-0.00004134,-0.000347
46,-0.00006856,-0.00012938,0.00225356,0.00162097,0.00054456,-0.00129653,-0.00106
016,-0.15749348,0.09833449,0.06472851,0.00042903,0.02028362,0.05441097,0.2738704
3,-0.00164496,0.00167764,-0.00238038,0.00044256,-0.00189103,0.00742530,-0.000207
43,0.00076987,0.00171004,0.03806292,-0.03455659,-0.01590678,0.00206517,-0.001341
08,0.00122705,0.00054350,-0.00173692,-0.00082364,-0.00018354,0.00109436,-0.00032
936,0.00037982,0.00004756,-0.00024479,0.00017028,-0.00057489,-0.00038465,-0.0001
7414,0.00005191,0.00020798,0.00142758,-0.00206848,-0.00317720,-0.00109096,0.0018
4191,0.00175794,0.10265060,-0.18713137,-0.05547472,0.02079522,0.01704026,-0.0385
4945,-0.24077199,0.41341447,-0.00032680,-0.00006321,-0.00167899,-0.00168275,0.00
296348,-0.00135761,0.00058425,-0.00046066,0.00033330,-0.00828596,0.00987105,0.01
220028,0.00060441,0.00069188,0.00063757,-0.00058127,0.00060527,0.00060979,-0.000
58499,0.00085126,0.00015944,-0.00010438,-0.00014955,0.00005690,-0.00000523,-0.00
050698,0.00170501,-0.00031021,0.00049860,0.00089761,0.00073685,-0.00128062,-0.00
176134,-0.00053758,0.00095003,0.00117255,0.05219764,-0.03892163,-0.16317142,0.05
706924,-0.04082754,-0.07079286,-0.06529762,-0.00833486,0.36301031,-0.00048891,0.
00024164,-0.00019615,-0.00034702,0.00058018,-0.00016584,-0.00065062,-0.00008020,
0.00005418,0.00452623,0.00230627,0.00313642,0.00011929,-0.00006472,0.00010903,-0
.00048325,-0.00032550,0.00001487,0.00011374,0.00019005,-0.00000261,-0.00000751,0
.00002551,0.00002843,-0.00004869,-0.00012393,-0.00017312,0.00011105,0.00012608,0
.00001297,-0.00070796,-0.00052424,0.00014799,0.00035184,0.00031845,0.00016053,-0
.02566477,0.03660283,-0.00056322,-0.00106450,-0.00326444,-0.01126984,-0.09477887
,0.04253314,-0.01989546,0.59303878,0.00150949,-0.00192511,0.00111407,0.00048158,
-0.00024100,-0.00028976,0.00120079,-0.00059335,-0.00130329,0.00131149,0.00523625
,-0.00162540,-0.00132280,0.00189649,-0.00076281,-0.00040920,-0.00010216,-0.00013
638,0.00022241,-0.00010734,0.00012305,-0.00039591,-0.00022443,0.00043786,-0.0001
9769,-0.00002680,0.00019983,-0.00014884,0.00018786,0.00027553,-0.00054347,0.0009
5486,0.00092801,0.00062299,-0.00061319,-0.00043615,0.03398157,-0.04337098,-0.001
95216,-0.00913810,0.00200852,0.01354038,0.04855650,-0.15587803,0.04842043,0.0321
6571,0.53576115,-0.00054580,0.00057685,-0.00032826,0.00007993,-0.00050286,0.0012
4834,0.00006383,0.00029709,0.00044238,0.00404105,-0.00242218,-0.00126761,0.00033
441,-0.00050525,0.00028501,0.00008353,-0.00036026,-0.00011509,-0.00005939,0.0001
9610,-0.00007090,0.00009985,-0.00005735,-0.00003895,0.00006787,-0.00022568,0.000
20114,-0.00001711,0.00014398,-0.00016118,0.00046228,-0.00114960,-0.00073809,-0.0
0063344,0.00060611,0.00032405,0.00023507,-0.00698116,0.02277791,0.00340223,-0.00
391683,-0.00719313,-0.03381982,0.06887984,-0.13392856,-0.04268594,0.06317912,0.5
9194571,-0.00009711,0.00027277,-0.00002819,-0.00003735,0.00013339,-0.00025126,-0
.00041275,0.00002298,0.00002134,-0.00021869,0.00048593,0.00052680,0.00016189,-0.
00033455,0.00001285,-0.00006641,0.00002334,0.00002412,0.00002928,-0.00001202,0.0
0000675,0.00008664,0.00009898,-0.00010817,-0.00000095,0.00000926,0.00000132,0.00
012279,-0.00026209,-0.00003766,-0.00015155,0.00066785,0.00046730,0.00022929,-0.0
0033988,-0.00031642,0.00099946,-0.00058523,-0.00367737,0.00047541,-0.00037165,0.
00095487,-0.01209176,0.01219277,0.00658612,-0.17231417,0.07170138,0.12029589,0.1
8163485,-0.00024652,0.00038084,-0.00016759,0.00007099,-0.00022705,0.00039310,-0.
00037940,0.00010150,0.00017050,0.00058572,-0.00065582,-0.00087302,0.00027205,-0.
00040423,0.00011220,0.00006112,-0.00008578,-0.00004482,-0.00001332,0.00003425,-0
.00001627,0.00008875,0.00008990,-0.00010092,0.00000347,0.00000661,0.00001486,0.0
0010094,-0.00020702,-0.00004175,-0.00008900,0.00026889,0.00011541,0.00008001,-0.
00012931,-0.00008910,0.00050617,-0.00095586,0.00525336,0.00015934,0.00082430,-0.
00119385,0.02475845,-0.02197486,-0.01463657,0.06673252,-0.08953051,-0.07025616,-
0.08633366,0.10435910,0.00005459,-0.00013143,0.00002693,-0.00005218,0.00011069,-
0.00018327,0.00019861,-0.00003338,-0.00004311,-0.00018069,0.00045687,0.00064226,
-0.00009834,0.00017935,-0.00002747,-0.00006079,0.00002540,0.00002939,0.00000540,
0.00001695,0.00001868,-0.00006570,-0.00006622,0.00004439,0.00001793,-0.00002563,
0.00001391,-0.00003344,0.00009409,0.00003348,0.00003421,-0.00016543,-0.00009268,
-0.00002975,0.00009340,0.00005092,-0.00097286,0.00250842,-0.00437833,0.00104355,
-0.00175052,0.00180645,-0.01924141,0.01557709,0.01295500,0.12857777,-0.08010883,
-0.17529083,-0.12792940,0.07356363,0.17792612,0.00051360,-0.00069528,0.00015848,
-0.00003112,0.00000056,-0.00002907,0.00002506,-0.00028537,-0.00029543,-0.0009641
4,-0.00068790,-0.00012915,-0.00039129,0.00047761,-0.00007597,0.00005854,0.000063
20,0.00001748,-0.00001406,-0.00001644,0.00000421,-0.00061109,-0.00025029,0.00041
520,0.00004698,-0.00000305,-0.00000299,-0.00010841,0.00053023,0.00014083,-0.0009
3441,-0.00069698,-0.00007660,0.00016602,0.00036693,0.00014444,0.00222966,0.00039
713,-0.00211293,0.00005810,0.00025468,0.00071245,0.01500637,0.01923914,-0.005958
42,-0.19549625,-0.13506532,0.04874056,-0.01078063,-0.01314030,0.00158391,0.19892
020,-0.00035324,0.00068489,-0.00036338,-0.00005849,0.00005655,0.00021189,-0.0012
5201,0.00003581,0.00035899,0.00119723,-0.00013654,-0.00017837,0.00071899,-0.0008
6357,0.00023139,-0.00006383,-0.00010958,-0.00003446,0.00002354,0.00002419,-0.000
01134,-0.00001876,0.00021940,0.00000865,-0.00008352,0.00004762,-0.00006770,0.000
21682,-0.00046207,-0.00006110,-0.00037305,0.00084600,0.00024998,0.00029069,-0.00
040147,-0.00011024,-0.00528327,0.00333555,0.00700237,0.00033584,0.00080590,-0.00
321510,-0.00688684,-0.03074032,0.01124050,-0.12691861,-0.16535181,0.04034218,0.0
0945758,0.01096587,-0.00342758,0.13612143,0.18576098,0.00001639,0.00006102,0.000
11017,0.00001085,-0.00003441,-0.00012123,0.00021514,-0.00013147,-0.00036777,-0.0
0064170,0.00023307,-0.00010290,-0.00002261,-0.00016839,-0.00023999,0.00001795,0.
00005621,0.00001284,0.00001584,-0.00003411,0.00001327,0.00050082,0.00027436,-0.0
0032375,0.00004655,-0.00000666,0.00001679,0.00012361,-0.00024297,-0.00006526,-0.
00119633,0.00156592,0.00151234,0.00108591,-0.00079424,-0.00080460,0.00253022,-0.
00310764,-0.00145461,-0.00072361,0.00125292,0.00125628,0.00591746,0.02062195,-0.
00673133,0.04532661,0.03935373,-0.06454014,0.01323736,0.01353305,-0.00262320,-0.
04863456,-0.05506446,0.06619992,-0.00002953,0.00009700,-0.00008558,0.00001150,-0
.00003046,-0.00003105,-0.00007877,0.00004541,0.00009126,0.00016224,0.00043739,0.
00050781,0.00002039,-0.00008303,0.00007898,-0.00004701,-0.00000957,0.00001179,-0
.00002016,0.00003928,-0.00000095,-0.00003208,-0.00001685,-0.00004910,0.00003884,
-0.00014031,0.00009390,0.00000452,-0.00003180,0.00004139,0.00017870,-0.00010216,
-0.00015342,-0.00009843,0.00008772,0.00009396,0.00314176,-0.00218111,-0.00658186
,-0.00011304,-0.00086417,0.00322833,-0.01106306,0.00433039,-0.01280006,-0.105957
21,-0.04478740,-0.09998106,0.01236349,0.00675927,0.01720692,-0.00752443,-0.00712
961,-0.01793070,0.10909050,-0.00014886,0.00027463,-0.00011753,-0.00001279,-0.000
02375,0.00006969,-0.00017519,0.00016154,0.00020589,-0.00056649,-0.00109734,-0.00
033379,0.00013132,-0.00027781,0.00014178,0.00009442,0.00002865,-0.00000388,-0.00
000397,-0.00001239,-0.00001169,0.00001317,0.00002318,-0.00007062,-0.00003985,0.0
0015238,-0.00006510,0.00001320,-0.00005949,-0.00003818,0.00018298,-0.00032729,-0
.00031686,-0.00020244,0.00019078,0.00019857,-0.00147577,0.00331612,0.00445060,0.
00080294,-0.00073526,-0.00180175,0.02180368,0.00312625,0.02957336,-0.05041519,-0
.08878958,-0.08762023,-0.00676483,-0.00272570,-0.00695715,-0.00683764,-0.0044579
5,-0.01735810,0.04359150,0.09130923,0.00012531,-0.00010081,0.00007142,0.00010367
,0.00000423,-0.00008694,-0.00004420,-0.00004340,-0.00006377,-0.00045376,0.000403
92,-0.00007415,-0.00007409,0.00004965,-0.00005365,-0.00004922,0.00001920,0.00000
627,0.00000852,-0.00002378,0.00002856,-0.00000742,0.00001606,0.00000458,-0.00000
765,-0.00004221,0.00007226,-0.00001108,-0.00001433,0.00000787,-0.00003141,0.0001
9453,0.00011053,0.00005892,-0.00010750,-0.00006168,0.00401630,-0.00376421,-0.002
54756,0.00005059,-0.00035044,0.00194099,-0.01282028,0.00720760,-0.01484305,-0.10
290329,-0.08058785,-0.23376309,-0.00974519,-0.00577470,-0.01090952,0.00543103,0.
00283145,0.00830303,0.11628717,0.08004292,0.25190287,-0.11563904,0.12761902,-0.0
2692018,-0.00091098,-0.00071100,-0.00013673,0.00837925,-0.01305399,-0.01425556,-
0.00100055,0.00025777,0.00005997,-0.02833499,0.03324581,-0.01146930,0.00016469,0
.00028066,-0.00019363,-0.00009937,-0.00005616,-0.00017993,0.00135804,0.00174190,
-0.00074119,0.00005852,0.00005736,-0.00003746,-0.01327276,0.01835298,0.00960631,
0.00492692,-0.00289363,0.01793784,0.00216039,-0.00271534,-0.00643422,0.00009605,
-0.00139798,0.00136316,0.00051384,0.00089330,-0.00063274,-0.00018188,0.00045385,
-0.00016714,-0.00010277,-0.00047062,0.00009740,0.00008766,0.00010442,-0.00005152
,-0.00026228,0.00019199,-0.00001138,0.00002910,0.00009090,-0.00000879,0.51046936
,0.12613392,-0.24334708,0.01464424,-0.00066422,-0.00035248,0.00033717,-0.0045785
9,0.02617972,0.01678868,0.00061496,-0.00047412,0.00041669,0.02818837,-0.03946484
,0.02367459,0.00000050,-0.00019998,0.00005147,-0.00038061,0.00000909,-0.00041177
,0.00144343,-0.00008277,0.00023820,-0.00004160,-0.00010820,0.00006347,0.02544181
,-0.05553495,-0.00756836,-0.01651953,0.00421931,-0.03148606,0.00235148,0.0047452
8,0.00889431,-0.00160722,0.00357623,-0.00205157,0.00002925,-0.00202376,0.0013045
4,0.00086950,-0.00164362,0.00010416,-0.00004372,0.00110368,-0.00033134,-0.000117
06,-0.00022948,0.00008716,0.00045842,-0.00044373,0.00002277,-0.00002705,-0.00018
080,0.00004809,-0.69442761,1.20797680,-0.02894807,0.01873464,-0.07803778,0.00004
396,0.00003006,0.00015189,-0.00138543,-0.00661745,-0.00713916,0.00001130,0.00014
230,-0.00012205,-0.02045942,0.03919972,-0.00074384,0.00002478,0.00003020,-0.0000
2831,-0.00025785,0.00000074,-0.00046309,-0.00108248,0.00085294,0.00078693,0.0000
2022,0.00002438,-0.00002361,0.01923826,-0.02424127,0.00775715,-0.00100760,0.0034
8215,-0.00172431,0.00105426,-0.00460034,-0.00114351,0.00043998,-0.00091533,0.000
39097,-0.00008857,0.00042705,-0.00033566,-0.00020968,0.00041836,-0.00000344,0.00
001615,-0.00022557,0.00007983,0.00000645,0.00003878,-0.00001322,-0.00007308,0.00
008601,-0.00005024,0.00001166,0.00004780,-0.00001089,0.09578857,-0.13243670,0.12
924377,-0.00311668,0.02304485,-0.00545443,-0.00092385,-0.00012853,0.00020598,-0.
00268309,0.00603181,0.00478190,0.00016647,-0.00010739,-0.00020147,0.00890049,-0.
00757977,0.00467638,0.00002378,-0.00000462,-0.00007280,-0.00000496,0.00002081,0.
00014075,-0.00030825,-0.00039942,0.00036021,-0.00000169,-0.00000118,0.00001141,0
.00391951,-0.00400713,-0.00255409,-0.00168274,-0.00009099,-0.00799440,-0.0008192
1,0.00210612,0.00321089,0.00027403,0.00019647,-0.00026185,-0.00034455,-0.0002665
4,0.00006399,-0.00005887,-0.00004082,0.00007642,0.00012006,0.00025627,-0.0000685
7,-0.00006178,-0.00004627,0.00002630,0.00004514,-0.00011146,0.00001533,-0.000033
74,-0.00004273,0.00000197,-0.36656575,0.53472802,-0.06407766,0.36297028,0.026316
86,-0.02561036,0.01315578,-0.00033844,-0.00008548,-0.00023231,0.00310564,-0.0119
0246,-0.00758262,-0.00090356,0.00036301,-0.00028981,-0.01001517,0.01408330,-0.00
985470,0.00010000,0.00018253,-0.00015267,0.00018066,-0.00006165,0.00030751,-0.00
044565,0.00005658,-0.00032746,0.00004582,0.00008500,-0.00003776,-0.00427266,0.01
139057,0.00253883,0.00558133,0.00088264,0.01412222,0.00000601,-0.00410903,-0.005
26308,0.00117077,-0.00256474,0.00157147,0.00007292,0.00134402,-0.00099310,-0.000
64393,0.00117661,-0.00005069,0.00003927,-0.00072821,0.00023311,0.00005647,0.0001
3977,-0.00005389,-0.00026879,0.00026582,-0.00003975,0.00001398,0.00011953,-0.000
03509,0.53382149,-0.90338846,0.10488502,-0.55389420,0.91890605,-0.00163524,0.006
34771,0.01635180,0.00011159,0.00001803,-0.00020355,0.00007058,0.00164643,0.00141
952,0.00017867,-0.00001030,0.00017281,0.00182046,-0.00473166,0.00075145,-0.00005
085,-0.00011457,0.00000718,0.00007048,-0.00002563,0.00005001,0.00022515,-0.00007
714,-0.00010543,-0.00004614,0.00002033,0.00003415,-0.00211423,0.00141160,-0.0007
7998,-0.00037657,-0.00077547,-0.00067275,-0.00009298,0.00104418,0.00055231,-0.00
019871,0.00039089,-0.00045865,-0.00003047,-0.00020359,0.00032762,0.00008144,-0.0
0014755,0.00008624,-0.00001261,0.00009662,-0.00004194,-0.00000690,-0.00001760,0.
00000703,0.00003437,-0.00003647,0.00000538,0.00000270,-0.00001583,0.00000559,-0.
06511137,0.10678026,-0.04839806,0.06707244,-0.11129181,0.03093142,0.00005318,-0.
01354561,-0.00829119,-0.00003998,0.00000730,-0.00012667,0.00388155,0.00346568,0.
01530387,-0.00018974,0.00022825,-0.00015088,-0.04137776,-0.00078066,-0.04339180,
0.00000944,0.00003819,-0.00004454,0.00010733,-0.00013858,0.00001359,-0.00119640,
-0.00088949,0.00026897,-0.00003089,0.00008869,-0.00008721,0.00529264,0.00377494,
-0.00536749,-0.00012611,0.00519356,-0.00104062,0.00021180,0.00014683,0.00131513,
-0.00077282,-0.00011010,0.00408184,0.00169695,0.00113439,-0.00309501,0.00089098,
-0.00117311,-0.00131707,-0.00026851,0.00046915,-0.00019279,0.00004238,-0.0000347
5,-0.00003311,0.00004842,-0.00002143,0.00010088,-0.00004360,-0.00003835,0.000072
90,-0.00187345,-0.00185247,0.00093426,0.00018537,0.00027119,0.00000819,0.0334992
1,-0.00371573,0.01281879,0.01140373,-0.00007644,0.00005973,0.00024899,-0.0072063
2,-0.00458838,-0.02068314,0.00006231,-0.00006128,-0.00008692,0.00016577,-0.18319
448,-0.18987992,0.00002970,0.00000193,-0.00007869,0.00002219,-0.00011423,0.00004
659,-0.00069231,0.00046689,0.00085299,0.00001453,0.00000231,-0.00004384,0.004300
70,0.00365389,0.00499146,0.00447033,-0.00600646,-0.00080482,-0.00057205,0.000777
06,-0.00060377,-0.00042618,0.00043934,0.00128236,0.00051790,-0.00011597,-0.00085
216,0.00045090,-0.00070363,-0.00053770,-0.00010111,0.00033370,-0.00012548,-0.000
00175,-0.00004540,0.00000702,0.00003803,-0.00008155,0.00000721,0.00000157,-0.000
01492,0.00002669,-0.00138513,-0.00033583,0.00063651,0.00033669,-0.00054504,-0.00
030843,0.00376636,0.17725354,0.00286259,-0.01522323,-0.01460382,-0.00009297,0.00
001784,0.00002853,0.00221077,0.00061458,0.00535584,-0.00006753,-0.00015697,-0.00
014044,-0.04070525,-0.18349320,-0.33134564,0.00002417,0.00001715,0.00000995,0.00
002746,0.00014049,0.00010462,0.00052535,0.00070398,0.00001724,0.00004246,-0.0000
0415,0.00002993,-0.00570684,0.00345125,0.00112578,-0.00045252,-0.00191130,0.0002
3246,-0.00025656,0.00144805,0.00154890,0.00097452,-0.00017286,-0.00178892,-0.001
65411,-0.00063790,0.00074262,-0.00051514,0.00072024,0.00044459,0.00028314,-0.000
24042,0.00017341,-0.00004060,0.00001744,0.00000707,0.00000523,0.00000678,-0.0000
0504,-0.00004210,-0.00001988,-0.00003968,0.00149790,0.00083000,-0.00017337,0.000
04128,-0.00060921,-0.00004215,0.04103874,0.19450132,0.33831813\\0.00000659,-0.00
000911,0.00000153,-0.00001136,0.00000727,0.00000931,-0.00000004,-0.00000214,-0.0
0000260,0.00000482,-0.00000798,-0.00000576,-0.00000741,0.00000563,-0.00000936,-0
.00000324,-0.00000167,-0.00000550,-0.00000323,-0.00000044,-0.00001088,0.00000097
,-0.00000078,0.00000336,0.00000117,-0.00000095,-0.00000090,0.00000397,-0.0000056
9,-0.00000045,0.00000640,-0.00000360,-0.00000492,0.00000492,0.00000180,0.0000053
9,-0.00000189,0.00000434,0.00000818,0.00000056,-0.00000199,-0.00000225,-0.000000
19,0.00000087,0.00000627,-0.00000422,0.00000328,0.00000452,0.00000643,0.00000197
,0.00000689,0.00000502,0.00000736,0.00000406,0.00000053,0.00000805,0.00001136,0.
00000101,-0.00000935,-0.00000610,-0.00000639,0.00000135,-0.00000992,-0.00000441,
0.00000176,-0.00000223\\\@
