1\1\GINC-NODE-001\Freq\RwB97XD\def2SVP\C9H10O3\JP2658\30-Dec-2023\0\\# wb97xd de
f2svp scrf=(iefpcm,solvent=toluene) freq=noraman\\da-2_1_opt_sqm_reopt.out\\0,1\
C,-2.17526,0.62674,0.27447\C,0.33165,-1.04286,1.26333\C,0.19931,2.57609,0.37162\
C,1.37887,-0.21838,1.32913\C,-1.40891,1.01192,-0.76053\C,-0.32038,1.99403,-0.719
59\H,1.02615,3.28447,0.28738\H,-0.18215,2.37927,1.37762\H,-2.02467,1.10747,1.248
36\H,-0.36341,-1.34879,2.04266\H,1.77599,0.33618,2.17682\O,1.25666,-0.97145,-0.8
5321\C,0.24192,-1.55629,-0.13209\C,2.0058,-0.16607,-0.02173\O,-0.51226,-2.34158,
-0.61482\O,2.97699,0.40751,-0.39784\C,-3.24619,-0.42294,0.18677\H,-4.03756,-0.12
772,-0.52028\H,-2.82816,-1.37769,-0.17089\H,-3.71982,-0.60117,1.16131\H,-1.58214
,0.53981,-1.7344\H,0.12386,2.23884,-1.68993\\Version=ES64L-G16RevC.01\State=1-A\
HF=-573.9986314\RMSD=7.090e-09\RMSF=5.259e-06\ZeroPoint=0.1715829\Thermal=0.1839
063\ETot=-573.814725\HTot=-573.8137808\GTot=-573.8669023\Dipole=-0.7315361,0.394
4303,1.6057697\DipoleDeriv=0.176551,0.2158701,-0.0669091,0.3899363,-0.0428568,0.
0373286,-0.1743033,0.2116955,-0.0054286,0.1161706,-0.0762579,-0.066525,-0.003739
,-0.2223316,-0.101323,-0.10044,-0.2502135,-0.193984,-0.2929241,0.1446705,-0.0789
519,0.079899,-0.2837628,0.0009914,-0.2186769,0.0720874,-0.0596139,-0.2691829,0.0
628677,0.1091915,-0.0418897,0.0984549,0.0629962,0.2798355,0.0760602,-0.1433633,-
0.427352,0.0969214,-0.0114605,0.0141335,-0.0492081,0.1099692,0.3437839,0.1885778
,0.0480287,0.2321004,0.1721556,-0.0110785,0.2783465,-0.0916184,-0.0018016,-0.062
1758,-0.2099129,0.0982127,0.03901,-0.1049108,-0.0030144,-0.087101,0.0627125,-0.0
137898,0.0177058,0.005991,0.0695851,0.0782204,-0.0684067,0.0748207,-0.0675177,0.
1147572,0.0488501,0.0403573,0.0141515,-0.0452044,0.0871707,-0.0806588,-0.0242309
,-0.0866254,0.0487604,-0.0784001,-0.0119472,-0.0779123,-0.0424247,0.1032449,-0.0
29958,0.0404168,-0.0174346,0.1316218,-0.0098276,0.0268527,-0.0216374,0.0944702,0
.1225718,-0.0171784,0.002307,-0.0315432,0.1174981,-0.0385644,0.0169302,-0.024318
,0.0886504,-1.1846823,-0.5936726,0.080061,-0.6421315,-0.797115,-0.1496687,0.0454
955,-0.1360994,-0.7907402,1.4637563,0.6428376,0.037409,0.6579201,1.3116782,0.260
5309,0.0594303,0.4146811,1.0352189,1.7628421,0.5961282,-0.1990263,0.6675324,1.04
2379,0.0574544,-0.3443145,0.0996267,0.9970415,-0.8504544,-0.4032896,-0.1079266,-
0.3637827,-0.9684236,-0.1862089,-0.2929906,-0.3922128,-0.5962744,-1.2308555,-0.3
187155,0.1493251,-0.3894913,-0.6247741,0.0483616,0.4069536,0.1388219,-0.5434241,
-0.040094,-0.0495497,-0.0139172,-0.1272907,-0.0520219,-0.0316067,-0.1798881,-0.1
372826,0.0728836,-0.0916159,-0.0453118,-0.0459014,-0.0062959,0.0454131,0.0596389
,-0.0740299,0.0413501,0.0179983,0.0554378,0.0339534,0.0455419,-0.0377577,-0.0457
835,-0.0098007,0.069014,-0.0283167,0.0682281,0.0053226,-0.050182,0.0444605,-0.05
15802,0.0557398,0.0081238,0.1108265,0.0479974,-0.0813097,0.0862695,-0.0519826,-0
.0120426,-0.080882,0.0621086,-0.0818321,-0.0136379,-0.0634215,-0.0373718,0.05849
29,-0.0753299,0.0574505,-0.0527051,0.0867722,0.0085785,0.0552187,0.0302867,-0.05
11785\Polar=134.684321,35.961567,110.199931,-0.6788484,3.7010953,99.5358795\Quad
rupole=-2.8156556,-2.4484788,5.2641345,-0.7178628,2.6189983,-2.5004282\PG=C01 [X
(C9H10O3)]\NImag=1\\0.46280231,0.23561185,0.38794292,-0.17411269,0.03892740,0.74
552340,-0.00032206,-0.00169439,0.00274890,0.65488675,-0.00016223,-0.00031631,-0.
00013092,0.36777779,0.40768188,-0.00051678,-0.00104476,0.00090881,-0.17359463,0.
01424543,0.59314596,0.00218966,0.00133189,-0.00565217,0.00105992,0.00123438,0.00
083855,0.45671506,0.00244177,0.00116827,-0.00354530,-0.00091678,-0.00110618,-0.0
0052095,0.30471570,0.38789209,0.00504805,0.00571682,-0.00690890,0.00274383,0.001
82775,0.00120567,0.02825445,0.11260681,0.77901367,-0.00033925,0.00201675,-0.0026
9110,-0.37171677,-0.25429165,-0.01164569,-0.00005898,-0.00014442,-0.00026341,0.5
8324917,-0.00001574,0.00175710,-0.00266356,-0.24845188,-0.24872983,-0.02738027,-
0.00116281,0.00036997,-0.00299447,0.36767510,0.45162796,-0.00008077,-0.00068648,
0.00106367,-0.00585684,-0.02317997,-0.11442220,0.00017829,-0.00026021,0.00056345
,0.04885481,0.19246049,0.62115748,-0.21869104,-0.08551919,0.18569869,0.00353155,
-0.00017437,0.00146530,-0.01413760,-0.01776221,-0.01805226,-0.00283084,-0.003472
20,0.00086115,0.47036992,-0.08691053,-0.11311691,0.07195132,0.00426816,-0.000491
30,0.00120772,-0.02036941,-0.01048937,-0.01446025,-0.00084968,-0.00333482,0.0006
3139,0.25314984,0.37987091,0.19553834,0.07941860,-0.37390521,-0.00266026,-0.0001
6303,-0.00166994,-0.01761561,-0.01588899,0.01280233,0.00066712,0.00228820,-0.000
88046,-0.16266388,0.04043983,0.75761724,-0.02054652,-0.02281318,0.01451427,-0.00
368056,-0.00082810,-0.00134056,-0.14817027,-0.09898035,-0.12313816,0.00004744,0.
00495929,-0.00097036,-0.16948249,-0.10165860,-0.01208143,0.43213267,-0.01787662,
-0.00987525,0.01501827,-0.00280448,-0.00207286,-0.00092365,-0.09817801,-0.160302
06,-0.15189581,0.00033671,0.00253237,-0.00037368,-0.09369288,-0.15250115,-0.0224
4215,0.25706017,0.38336811,0.01686742,0.01540694,0.01389812,-0.00249996,-0.00033
315,-0.00114019,-0.13641249,-0.16375668,-0.41307645,0.00048087,0.00308198,-0.001
21278,0.01500498,0.00288307,-0.10894877,0.02778690,0.11499144,0.80195919,-0.0000
8878,0.00068502,0.00017659,0.00003907,0.00013210,0.00002229,-0.21571795,-0.15685
674,0.02071276,0.00013845,-0.00020208,0.00001217,0.00570533,-0.00460611,-0.00151
761,-0.00375815,-0.00739715,0.00433410,0.21975298,0.00057429,-0.00058366,-0.0001
9025,-0.00004095,-0.00013191,-0.00005826,-0.15642174,-0.16636222,0.01443377,-0.0
0006963,0.00011807,-0.00009573,-0.00518090,0.00596892,-0.00225513,-0.00944858,-0
.00274841,0.00306334,0.16926634,0.16746274,0.00033796,0.00014355,-0.00061623,-0.
00000357,0.00004226,-0.00000623,0.02512714,0.01834324,-0.05763641,0.00010367,-0.
00006884,0.00009271,0.00017796,-0.00160441,-0.00341278,-0.02108749,-0.01838583,0
.00498354,-0.02090600,-0.01417493,0.05390953,-0.00025046,-0.00099426,-0.00122803
,-0.00018043,-0.00038817,-0.00041085,-0.08523281,-0.03019564,0.09630427,-0.00028
401,0.00079979,0.00023222,-0.00404008,0.00313382,0.00025220,0.01066454,0.0025178
3,-0.01147851,-0.00279153,-0.00226948,0.01837434,0.07864588,-0.00059787,0.000199
22,-0.00072901,0.00035813,0.00020844,0.00022483,-0.03031456,-0.05603771,0.048566
82,0.00038247,-0.00119999,0.00010948,0.00369954,-0.00412097,0.00121609,0.0048003
6,0.00856692,-0.01201529,-0.00530026,0.00070607,0.01605449,0.03441953,0.04605744
,0.00012450,-0.00030001,-0.00002157,-0.00030778,0.00018724,0.00014351,0.09379517
,0.04664531,-0.29584640,-0.00012342,0.00075243,-0.00023583,0.00067221,0.00183596
,0.00055313,0.01154874,0.00645141,-0.01800481,-0.00202516,-0.00199020,0.00129188
,-0.10163951,-0.05032838,0.31315930,-0.05455254,-0.02368025,-0.03159644,-0.00049
728,0.00036110,0.00011540,-0.00013535,-0.00023640,0.00155485,0.00024661,0.000094
03,-0.00013738,0.00980540,0.00736857,0.01661412,-0.00387352,0.00266838,-0.002088
97,0.00010209,0.00010919,-0.00036781,-0.00078996,-0.00139681,-0.00037180,0.04816
448,-0.02233447,-0.10208120,-0.11257708,0.00050276,-0.00032467,-0.00026704,-0.00
054736,0.00038764,0.00033389,-0.00037138,-0.00004720,0.00029017,-0.00159180,0.00
933182,0.00775379,0.00349952,-0.00357904,0.00131314,0.00017516,-0.00007220,0.000
00194,-0.00114929,0.00025900,-0.00017080,0.03409970,0.09705585,-0.03001637,-0.10
998833,-0.27397100,-0.00033699,0.00019027,-0.00006467,0.00004003,-0.00008808,0.0
0034753,0.00006124,0.00025197,0.00005424,-0.00364719,-0.01269935,-0.01947718,-0.
00283724,0.00000792,-0.00022866,-0.00011431,0.00010145,0.00042320,0.00026713,-0.
00004918,0.00073284,0.02982493,0.12064881,0.29013160,-0.00012536,0.00044701,-0.0
0028898,-0.17531432,-0.06332232,0.14472657,-0.00008807,0.00001612,-0.00013235,-0
.00277422,-0.00326611,0.01753794,-0.00015250,-0.00028047,0.00019309,0.00021517,0
.00018234,0.00007710,0.00000020,0.00000369,-0.00000263,0.00002448,-0.00002083,0.
00000747,0.00002260,0.00006135,-0.00007077,0.17334022,0.00025670,-0.00034759,0.0
0069739,-0.06437495,-0.07031980,0.05903821,0.00005737,-0.00000114,0.00025642,-0.
00928506,0.00492873,0.01353500,0.00029220,0.00021184,-0.00036102,-0.00029695,-0.
00022508,-0.00015077,0.00001253,0.00001411,-0.00003267,-0.00002043,-0.00003054,-
0.00003414,-0.00000441,-0.00012885,-0.00001720,0.06867703,0.05925024,0.00004337,
0.00003126,0.00006568,0.14442732,0.05904580,-0.21532966,-0.00003791,-0.00008769,
0.00001219,-0.00579647,-0.00373713,0.01069542,0.00010877,-0.00022558,0.00014538,
0.00016000,0.00005400,-0.00004284,-0.00000547,-0.00001491,0.00000390,-0.00000077
,0.00003076,0.00003528,-0.00004539,0.00010513,0.00009433,-0.15439886,-0.06262643
,0.21508006,0.00001649,0.00003224,-0.00020500,0.00275060,-0.00955903,-0.01844182
,-0.00012684,0.00021384,-0.00052017,-0.09166438,-0.06605866,-0.08568327,-0.00021
480,-0.00021971,0.00009863,0.00014586,0.00021293,0.00031204,-0.00001775,-0.00002
158,0.00005568,-0.00008159,0.00008903,-0.00002257,-0.00003927,0.00001774,0.00002
418,-0.00110380,0.00315446,-0.00024410,0.08233760,0.00001064,-0.00011377,0.00018
543,-0.00347832,0.00107754,-0.01470561,0.00021774,-0.00023592,0.00034688,-0.0650
7309,-0.12525935,-0.12693587,0.00025731,0.00023897,-0.00006535,-0.00028378,-0.00
010632,-0.00025721,-0.00000635,-0.00005424,0.00003167,0.00016275,-0.00009118,0.0
0007754,0.00000728,0.00001986,-0.00001268,0.00290267,-0.00266439,0.00136563,0.07
079776,0.11925508,-0.00000977,-0.00003457,0.00008325,0.00415827,0.00351122,0.009
04127,0.00018770,-0.00002338,0.00004748,-0.08549159,-0.12675991,-0.24479112,0.00
006115,-0.00012025,-0.00007457,0.00001773,-0.00012581,0.00002586,-0.00003374,0.0
0007469,-0.00002777,-0.00008954,0.00001266,0.00015595,-0.00003596,0.00001262,0.0
0001892,-0.00115945,0.00064852,-0.00031114,0.09101257,0.13577851,0.24639439,0.00
087234,0.00018221,-0.00017756,-0.00702507,-0.00876670,0.02569396,0.00050285,0.00
009368,0.00022665,0.00746162,-0.00930138,-0.00424349,-0.00172543,0.00097584,0.00
051369,-0.00053779,-0.00059946,0.00004713,-0.00005153,0.00045301,0.00003445,0.00
004923,0.00000417,-0.00017502,0.00001798,0.00009880,0.00009868,0.00258323,0.0012
0654,0.00290666,0.00167487,-0.00019258,-0.00049637,0.30071423,-0.00047393,-0.000
51379,0.00011324,-0.00799277,0.01159285,0.00169417,0.00069933,0.00061145,0.00029
642,-0.01016355,0.00068756,-0.02278075,0.00069450,-0.00054009,-0.00064363,-0.000
10883,-0.00126902,-0.00062933,-0.00007850,0.00028922,0.00001287,0.00007102,-0.00
002321,-0.00009575,-0.00001771,0.00012160,0.00011722,-0.00028265,0.00174063,0.00
023036,0.00129714,0.00240865,-0.00233974,0.17062989,0.20849898,0.00050690,0.0000
5114,-0.00009424,0.02880051,0.00460319,-0.04530682,0.00027187,-0.00031450,-0.000
15937,-0.00781976,-0.02478969,-0.04929756,-0.00019579,0.00004315,0.00010408,-0.0
0021998,-0.00006397,-0.00000866,-0.00004630,0.00010180,0.00003568,-0.00020451,0.
00012768,0.00026119,-0.00012455,0.00018810,0.00024499,-0.00214124,-0.00370074,-0
.00438226,0.00466229,0.00162918,-0.00420512,-0.05383292,0.06528137,0.41789532,-0
.00068973,0.00093047,0.00152965,-0.08479539,-0.00156512,0.02041339,-0.00165035,-
0.00083610,-0.00076266,-0.00994168,-0.01435408,-0.01887373,0.00141862,0.00028311
,-0.00038114,0.00103979,0.00163975,0.00006231,0.00003108,-0.00034092,-0.00012896
,0.00008354,-0.00007745,0.00012832,-0.00004574,-0.00028038,-0.00036064,0.0041740
2,0.00824905,0.01630292,-0.00056261,-0.00816233,0.00511046,-0.10074364,-0.015004
70,0.05529073,0.61704739,0.00512846,0.00125253,-0.00163430,-0.00540694,-0.088284
04,-0.02555065,-0.00133693,0.00017811,-0.00123705,-0.01457528,-0.01542869,-0.017
49978,-0.00173021,-0.00132274,0.00298152,0.00060853,0.00061310,0.00081580,0.0000
6743,-0.00005548,-0.00004748,0.00018892,-0.00029886,-0.00011551,-0.00021522,-0.0
0011584,-0.00021313,0.00153238,0.00555576,0.01104506,-0.00816713,0.00553545,-0.0
0041449,-0.01465941,-0.07178367,0.00386717,0.39145296,0.60543417,0.00036019,0.00
086172,-0.00097969,0.01108250,-0.03316497,-0.20343303,-0.00210532,0.00095250,-0.
00248045,-0.01879468,-0.02250268,-0.01067837,-0.00099213,-0.00004816,0.00141596,
0.00147279,0.00253533,0.00111981,-0.00002952,0.00010673,-0.00011948,0.00069462,-
0.00056499,-0.00048548,0.00011854,-0.00016621,-0.00037981,-0.00513363,-0.0057561
9,-0.00573182,0.00436288,-0.00023021,-0.00197534,0.06174851,0.00918231,-0.190507
30,0.15562028,0.25891030,0.60684890,-0.00093894,-0.00153297,0.00138395,-0.024908
06,-0.01411795,0.01944083,-0.00091765,0.00150487,0.00036467,-0.09419117,-0.00481
523,0.02815132,0.00138171,-0.00025407,-0.00062926,-0.00104059,0.00138240,-0.0013
8105,0.00013800,-0.00111754,-0.00004885,-0.00018639,0.00009432,0.00025543,-0.000
23796,0.00020141,0.00000998,0.00161551,-0.00824271,-0.00097493,0.00828974,0.0012
7328,-0.01344322,-0.07503658,-0.01175423,-0.00695816,-0.07375361,-0.04376108,0.0
0975048,0.83133980,-0.00070788,-0.00034652,0.00011268,-0.01408877,-0.00542159,0.
01346475,-0.00155000,-0.00066536,-0.00205257,-0.00078426,-0.08093039,-0.01820790
,0.00079884,-0.00047279,0.00063318,0.00213281,0.00179846,0.00191212,0.00017434,-
0.00083047,0.00004600,-0.00003309,-0.00011052,0.00015282,0.00001208,0.00004411,-
0.00016093,-0.00825889,0.00408739,-0.00532132,0.00788951,0.00263214,-0.01212953,
-0.01268960,-0.08357235,-0.04546026,-0.06107017,-0.05019232,0.02932800,0.3754064
5,0.44520797,-0.00007920,0.00196508,-0.00269083,0.02368145,0.01153988,-0.0052474
6,-0.00005228,0.00023350,-0.00046355,0.03849311,-0.01050178,-0.20048964,-0.00243
280,-0.00014662,0.00068699,-0.00023952,0.00035388,0.00061071,0.00006222,0.000075
32,0.00002813,0.00024695,-0.00025017,-0.00033532,0.00040084,-0.00061400,-0.00023
775,-0.00096887,-0.00466040,-0.00267340,0.00843608,0.00410812,-0.00665570,-0.013
78985,-0.05049177,-0.19670548,-0.04491917,-0.01221384,0.06415515,-0.25548328,-0.
07630793,0.55396705,-0.00211195,-0.00130636,0.00040134,0.00304192,-0.01929659,-0
.01484005,0.00127869,0.00001207,0.00121371,0.00365819,0.00160461,-0.00269192,0.0
0058100,0.00095304,-0.00108499,-0.00118715,-0.00157066,-0.00061930,0.00001189,0.
00012443,0.00006465,-0.00020033,0.00019494,-0.00001251,0.00020794,0.00007735,0.0
0024657,-0.00032250,-0.00019757,-0.00181899,-0.00080680,0.00093401,-0.00100819,-
0.06459710,-0.06786313,-0.01187888,-0.36886352,-0.31248952,-0.19997814,0.0139957
9,0.01230681,0.02252034,0.42387048,-0.00138981,-0.00231551,0.00140517,-0.0249580
6,-0.00606636,-0.02183704,0.00081140,-0.00048922,0.00124480,0.00290589,0.0022512
0,-0.00582866,0.00301127,-0.00066904,-0.00188682,-0.00078891,-0.00105801,-0.0008
9236,-0.00003568,0.00005148,0.00001466,-0.00020336,0.00026610,0.00004095,0.00000
580,0.00009512,0.00009511,0.00066051,-0.00075278,-0.00081414,0.00047245,-0.00206
981,0.00032632,-0.06108621,-0.03575672,-0.00257410,-0.31184102,-0.39973564,-0.22
302498,0.00661263,0.01555144,0.01412556,0.39058289,0.43705432,-0.00042875,-0.000
56574,0.00064372,-0.03292611,-0.03690687,-0.01026452,0.00104668,-0.00025860,0.00
113911,0.00207228,-0.00022439,-0.00832185,0.00055312,0.00047108,-0.00107805,-0.0
0089225,-0.00122694,-0.00058145,0.00000881,0.00002432,0.00005031,-0.00027735,0.0
0024730,0.00014024,-0.00003056,0.00011783,0.00020269,0.00077333,0.00129236,0.001
27567,-0.00234486,-0.00078782,0.00091586,0.00812629,0.01352674,0.03658760,-0.192
29920,-0.21663958,-0.24478753,0.00298237,-0.00188984,-0.00847370,0.21142875,0.24
160081,0.22980678,0.00046699,0.00127346,-0.00165669,0.00270348,0.00266739,0.0073
2720,-0.00097880,0.00006446,-0.00089576,-0.02068502,-0.02364808,0.02253045,-0.00
197063,-0.00045860,0.00079812,0.00036209,0.00136757,0.00151571,-0.00000964,0.000
32136,0.00001337,0.00008026,-0.00009692,-0.00010669,0.00020008,-0.00019197,0.000
03384,-0.00175212,0.00051720,-0.00027686,-0.00061457,0.00064790,0.00116656,-0.06
485742,-0.06028348,-0.00629752,0.02082465,0.00633116,-0.01630511,-0.58541866,-0.
29877341,0.22464052,-0.00953881,-0.00623749,0.00086779,0.66111063,0.00035576,0.0
0050870,-0.00052268,0.00114580,0.00246552,0.00188944,0.00163860,-0.00050913,0.00
074012,-0.01756725,0.01108560,0.00891174,-0.00082897,0.00012245,-0.00008761,0.00
002793,-0.00141267,-0.00060767,-0.00016679,0.00079542,0.00000463,0.00006965,0.00
002930,-0.00013438,0.00005962,-0.00010662,0.00004956,0.00102685,-0.00139472,0.00
099590,-0.00017639,-0.00056310,0.00150552,-0.06620059,-0.03325261,0.00139217,0.0
1192535,0.01082022,-0.01626484,-0.30122063,-0.24606901,0.12229971,-0.00716504,-0
.00636162,0.00133151,0.37692415,0.26345195,-0.00018929,-0.00088546,0.00114062,0.
00059922,-0.00112377,-0.00785051,0.00014980,-0.00016299,0.00044000,0.04184106,0.
02255551,-0.00335301,0.00135011,0.00022549,-0.00041611,-0.00044120,0.00003953,-0
.00051189,-0.00000459,-0.00010137,-0.00007773,-0.00013213,0.00010578,0.00014195,
-0.00016095,0.00022409,0.00004596,0.00116590,0.00201096,0.00118732,-0.00159293,-
0.00047190,0.00130549,-0.02705318,-0.01354633,0.03500930,0.00419264,-0.00163913,
-0.01092269,0.21654355,0.11601311,-0.19464415,-0.00299788,-0.00166945,0.00231221
,-0.23347666,-0.12140516,0.17592822,-0.15642669,-0.08842142,-0.00621834,-0.00015
655,0.00003501,-0.00009245,-0.00046038,0.00013375,-0.00077216,-0.00009728,-0.000
01137,0.00005697,-0.01536048,-0.01769012,0.00209752,0.00571793,-0.00200151,0.003
43772,0.00004918,-0.00011346,-0.00008321,-0.00015819,0.00025593,-0.00014930,0.00
123291,-0.00484481,0.00279406,-0.00018065,-0.00003667,-0.00020263,0.00000587,-0.
00000866,-0.00000148,-0.00028757,-0.00024741,-0.00011125,-0.00004198,0.00002669,
0.00029561,0.00012872,0.00016164,0.00016764,-0.00072444,0.00016845,-0.00012713,-
0.00011510,-0.00008620,0.00000970,0.53451869,-0.08676028,-0.15240909,-0.01387392
,0.00010918,0.00050123,0.00046173,-0.00033670,-0.00080376,-0.00070157,-0.0002431
5,-0.00036612,0.00003682,-0.01330074,-0.00571469,0.00326140,-0.00153013,0.006597
80,-0.00115645,-0.00004113,0.00006602,-0.00006449,0.00015431,-0.00036182,0.00012
606,-0.01130425,-0.00298717,0.00128004,0.00002707,0.00000101,0.00001705,-0.00000
905,-0.00000420,0.00001039,-0.00063969,-0.00034470,0.00001619,0.00058195,-0.0011
5065,-0.00062330,0.00046085,0.00020239,0.00005055,0.00103366,0.00042565,-0.00003
134,-0.00041356,-0.00012770,0.00010987,-0.02089146,0.52362539,-0.00046587,-0.007
65009,-0.08910419,0.00010682,0.00000770,0.00023677,-0.00084585,-0.00039449,-0.00
078415,-0.00015413,-0.00003839,0.00000727,0.01781736,0.01764614,0.00878102,0.004
12215,0.00000271,-0.00316840,0.00002634,0.00005321,0.00028007,0.00010883,0.00009
635,0.00033766,-0.01590285,-0.01599469,0.00209715,-0.00020067,-0.00003605,-0.000
00863,0.00001659,-0.00003669,0.00003414,-0.00034737,-0.00008847,-0.00001356,0.00
022993,-0.00056451,-0.00028159,0.00036002,0.00002412,-0.00001118,0.00023861,0.00
021093,0.00046235,-0.00025605,-0.00005594,0.00009749,-0.01969583,-0.00538673,0.5
8573358,-0.01537976,0.00426305,-0.01181157,0.00010255,-0.00000998,0.00012274,-0.
00033041,-0.00001211,-0.00002268,-0.00008530,-0.00005457,0.00004587,0.00150784,-
0.00105820,-0.00066634,0.00090035,-0.00059150,0.00013207,0.00000896,-0.00002591,
0.00002161,0.00001407,0.00007162,0.00002765,-0.00170582,-0.00076059,0.00013932,-
0.00001204,-0.00001704,0.00002104,0.00000619,-0.00001466,0.00002454,-0.00012719,
-0.00001939,-0.00000938,0.00026575,-0.00030624,-0.00008237,0.00023888,-0.0000411
6,-0.00008155,-0.00006287,0.00018902,0.00009393,-0.00017077,-0.00001340,0.000071
32,-0.18327690,0.05615378,-0.12662826,0.19578325,-0.01867298,0.00473639,-0.01571
155,0.00005790,-0.00012291,0.00010835,-0.00029192,-0.00005159,-0.00011649,-0.000
00582,-0.00004311,-0.00003110,0.00034042,0.00037292,-0.00082020,0.00086713,-0.00
049234,0.00009135,0.00004192,-0.00008482,0.00003844,-0.00002600,0.00012178,0.000
02547,-0.00109830,-0.00234822,-0.00009163,-0.00004646,0.00000186,-0.00007136,0.0
0000739,0.00000234,0.00001112,0.00024998,0.00030478,-0.00011079,-0.00059255,-0.0
0048213,0.00004710,-0.00006226,-0.00015092,-0.00002105,0.00052487,0.00011581,-0.
00005698,0.00006342,0.00007983,-0.00002342,0.05416379,-0.06276457,0.05086074,-0.
05579419,0.06841021,-0.00034787,-0.00284404,-0.00016001,-0.00002200,-0.00004455,
-0.00012058,0.00022650,0.00014837,0.00022823,0.00005634,0.00008153,0.00002310,0.
00208727,0.00143608,-0.00010774,-0.00043343,-0.00089856,-0.00008405,-0.00005050,
0.00004164,0.00001953,0.00000369,0.00004867,0.00002540,-0.00057575,-0.00056051,0
.00032225,0.00004692,-0.00001769,0.00001619,0.00000935,0.00000172,-0.00000497,0.
00006266,0.00003632,0.00002668,-0.00005729,0.00013234,0.00006287,-0.00003693,0.0
0000301,-0.00001630,-0.00003487,-0.00008525,-0.00005536,0.00004355,0.00000635,-0
.00000961,-0.12513831,0.05248219,-0.15905870,0.13690498,-0.05474331,0.16657090,0
.00875314,-0.02181668,-0.00863443,0.00047323,0.00026367,0.00041368,-0.00040895,-
0.00016481,-0.00029160,-0.00015374,-0.00022494,0.00012008,-0.00037671,-0.0002872
6,-0.00042440,-0.00005253,0.00110123,-0.00029795,-0.00005900,0.00005437,0.000011
11,0.00011473,-0.00012867,0.00006785,-0.00239819,-0.00121514,-0.00046696,-0.0000
3284,-0.00000091,-0.00009827,0.00000861,0.00003984,0.00000700,0.00088647,0.00109
835,0.00008263,-0.00372579,-0.00316804,-0.00141754,-0.00044884,-0.00066031,-0.00
027024,0.00182765,0.00140678,0.00126471,0.00022843,0.00031213,-0.00002420,-0.085
22804,0.09183482,0.03718901,-0.00798595,0.01773954,0.00860612,0.09308853,0.00430
752,-0.01830423,-0.00591759,0.00003422,-0.00027106,0.00000960,-0.00013912,-0.000
13544,0.00019115,0.00007918,0.00002425,-0.00007416,0.00034623,0.00186508,-0.0015
4577,-0.00087941,0.00060561,-0.00056489,0.00001413,-0.00002878,0.00001847,0.0000
6651,-0.00003407,0.00003957,-0.00112225,-0.00168744,0.00060712,-0.00005417,0.000
04984,-0.00005450,0.00000071,0.00001220,0.00000991,0.00024533,0.00031768,-0.0000
7557,-0.00070648,0.00026044,0.00018878,-0.00018318,-0.00033785,-0.00000457,0.001
07191,-0.00080503,-0.00016443,0.00015846,0.00016061,-0.00006294,0.09414679,-0.24
823658,-0.07644868,0.00198810,-0.00622240,-0.00332401,-0.09625566,0.26677597,-0.
00242590,-0.00251076,-0.00133993,-0.00018391,-0.00020712,0.00001921,0.00020875,0
.00011994,0.00027766,0.00021392,0.00013807,-0.00016242,0.00227378,0.00145943,-0.
00009720,-0.00096213,-0.00043943,-0.00028235,0.00000391,-0.00003310,0.00002367,0
.00002863,0.00001039,0.00001712,-0.00091374,-0.00040946,0.00010564,-0.00010392,-
0.00004855,-0.00017868,0.00001376,-0.00000157,-0.00001291,0.00026671,0.00014131,
-0.00011599,-0.00039997,0.00036160,0.00047538,-0.00023083,-0.00002712,0.00019982
,0.00013970,-0.00026887,-0.00066726,0.00023264,0.00007589,-0.00013718,0.03808048
,-0.07559309,-0.07440752,-0.00826615,0.01885151,0.00777081,-0.03827675,0.0836239
1,0.07515809,-0.01006003,-0.00118858,0.02119292,0.00001609,-0.00003377,0.0002200
5,-0.00017553,-0.00006079,-0.00008167,-0.00001943,-0.00007858,-0.00009653,-0.002
65323,-0.00379239,-0.00123478,0.00018362,-0.00006333,0.00094424,-0.00004799,0.00
001091,-0.00006174,0.00004570,-0.00004547,-0.00002563,0.00081987,0.00048110,-0.0
0011689,-0.00010360,0.00002468,-0.00004749,-0.00000491,-0.00000925,0.00001580,-0
.00007554,-0.00005076,-0.00013245,0.00027496,-0.00003693,0.00016595,0.00013410,0
.00000443,0.00009302,-0.00019935,0.00014310,-0.00016262,-0.00007444,0.00000245,-
0.00001718,-0.09654966,-0.01859682,0.10441260,0.01116780,0.00281798,-0.02082411,
-0.00504146,-0.00357163,0.00986341,0.10271088,-0.00869305,-0.00431888,0.02253432
,0.00008634,0.00000731,-0.00001309,-0.00012240,-0.00008809,-0.00007870,-0.000052
00,-0.00002419,0.00007084,-0.00369595,-0.00271856,-0.00133268,-0.00035808,0.0005
8284,0.00076110,0.00003907,-0.00008360,-0.00004822,-0.00004651,0.00006300,-0.000
04848,0.00049817,0.00071218,0.00013138,0.00001181,0.00002856,0.00003509,-0.00000
048,0.00000067,0.00001231,0.00014232,0.00021676,0.00001242,-0.00034419,-0.000480
16,-0.00021064,-0.00002721,-0.00013405,-0.00012960,0.00047748,0.00006927,0.00028
458,-0.00000145,0.00004840,0.00002839,-0.01753102,-0.05356249,0.03548618,-0.0045
8132,-0.00208190,0.00764068,0.01011866,0.00676086,-0.02483014,0.02410702,0.05542
416,-0.00496603,-0.00288841,0.00484697,0.00000128,0.00000850,-0.00006335,0.00013
972,0.00009950,0.00003701,0.00002171,0.00001955,0.00002810,-0.00007292,-0.000192
28,0.00036569,-0.00018908,-0.00025922,0.00017902,0.00000140,0.00002515,0.0000146
2,-0.00001094,-0.00002596,-0.00000572,-0.00013797,0.00002434,0.00110069,0.000062
61,0.00001889,0.00001019,-0.00000242,0.00000749,-0.00000720,0.00011087,0.0000887
5,0.00004572,-0.00027239,-0.00010450,-0.00012572,-0.00014016,-0.00004777,-0.0000
3730,0.00027514,-0.00007468,0.00012365,0.00008514,0.00002563,-0.00000959,0.10763
832,0.03919264,-0.27217637,0.00967449,0.00155877,-0.01524249,0.00189933,0.002835
28,-0.00669788,-0.11393221,-0.04033635,0.28734636,0.00692996,0.00602160,0.018362
92,-0.00001860,0.00004830,0.00014391,-0.00199636,-0.00314822,0.00174505,0.000011
56,0.00003795,0.00003440,-0.05596885,-0.02592738,-0.03714271,-0.00234385,-0.0108
6419,-0.02079036,-0.00053388,-0.00022801,-0.00079015,0.00012793,0.00006494,-0.00
006985,0.00328656,-0.00603792,0.00440640,0.00000307,0.00001857,0.00000251,-0.000
00644,-0.00000578,0.00002522,0.00038681,-0.00002349,0.00043046,-0.00029434,0.000
37896,-0.00089517,-0.00043443,-0.00055546,-0.00037087,0.00014746,-0.00032203,0.0
0032182,0.00020614,0.00020420,0.00002024,-0.00212670,0.00353700,-0.00085847,-0.0
0074179,-0.00022407,-0.00053299,0.00048634,0.00043866,0.00044062,-0.00007634,0.0
0014913,-0.00018773,0.05301241,-0.00078503,0.00891608,0.00780484,0.00003771,0.00
007956,0.00000728,-0.00361353,-0.00132759,0.00100484,0.00000129,-0.00016440,0.00
010360,-0.02681414,-0.10121079,-0.10828404,-0.00285758,-0.00520865,-0.01882983,-
0.00040711,-0.00019653,-0.00075234,0.00020628,-0.00000360,-0.00006874,-0.0062874
2,0.00545744,-0.00025542,-0.00002299,0.00001699,0.00001716,-0.00000601,-0.000009
39,0.00002075,-0.00025116,-0.00010791,0.00009875,0.00073325,-0.00009010,0.000190
62,0.00017002,-0.00005519,-0.00008700,-0.00022860,0.00010612,-0.00013770,-0.0001
6973,0.00000173,0.00007979,0.00299404,-0.00274823,0.00152538,0.00066550,0.000698
43,0.00050213,-0.00004566,-0.00071329,-0.00038488,0.00011724,-0.00020683,0.00001
684,0.03588865,0.09681895,-0.00464351,-0.01279664,-0.01918430,0.00005752,0.00005
566,0.00012173,0.00051555,-0.00020116,0.00108570,-0.00000797,0.00005327,0.000097
98,-0.03701801,-0.10781701,-0.27567221,0.00255355,0.00230552,0.00199020,0.000053
14,0.00001218,-0.00004840,0.00016180,0.00011006,0.00005497,0.00403754,-0.0001782
1,-0.00162039,0.00001331,-0.00003473,0.00001891,0.00002007,-0.00000080,0.0000190
9,0.00049938,0.00018202,0.00034698,-0.00083701,-0.00037351,-0.00092086,-0.000352
34,-0.00047823,-0.00037383,0.00057978,-0.00006627,0.00055065,0.00017340,0.000185
99,0.00001379,-0.00187602,0.00042875,0.00091367,0.00026239,0.00017815,-0.0002089
8,0.00050220,0.00067801,0.00005213,-0.00018022,0.00001312,0.00027442,0.03582264,
0.11742821,0.29174726,-0.00150779,-0.00382829,-0.00173622,0.00000996,-0.00000376
,-0.00006103,0.00884013,0.00011831,-0.01323542,0.00002903,-0.00005304,0.00001862
,-0.00669668,-0.00576987,0.02132957,-0.09673603,-0.03282951,0.10456598,-0.002901
02,0.00436109,-0.00084152,0.00434542,-0.00645616,-0.00159811,0.00016910,0.000110
23,0.00002099,-0.00001650,0.00001035,-0.00002446,0.00000793,-0.00001638,-0.00001
769,-0.00008477,-0.00012571,-0.00007272,-0.00005140,0.00013742,0.00006125,0.0002
5062,0.00032610,-0.00005454,-0.00000622,-0.00010765,-0.00005105,0.00000323,-0.00
026724,0.00014665,-0.00046270,0.00017433,0.00072709,-0.00011683,-0.00005980,0.00
000667,0.00004491,0.00001416,-0.00000301,-0.00027150,-0.00017633,0.00000182,-0.0
0005668,0.00067499,-0.00033719,0.09520778,-0.00330659,-0.00183851,-0.00125389,-0
.00016969,0.00004450,-0.00005019,0.00367807,0.00799727,-0.01402956,0.00007883,0.
00014528,-0.00019521,-0.00882659,-0.00127970,0.01778382,-0.03312328,-0.06381435,
0.05487335,0.00448984,-0.00423974,0.00042698,-0.00646419,0.00583522,-0.00304838,
0.00007911,-0.00000618,0.00009507,0.00000607,-0.00002208,-0.00002015,0.00003283,
-0.00001124,0.00001313,0.00010500,0.00037391,-0.00032270,-0.00062043,-0.00022946
,0.00025375,-0.00001719,-0.00023456,0.00067713,0.00021938,0.00009323,-0.00000632
,-0.00006184,0.00022744,-0.00030061,-0.00020198,0.00016228,0.00078128,-0.0000308
3,0.00000056,-0.00004310,-0.00000129,-0.00005636,-0.00002795,-0.00018061,-0.0002
1525,0.00000784,0.00054859,-0.00005280,0.00031561,0.04376679,0.05712055,-0.00054
394,-0.00032721,0.00080184,-0.00001560,-0.00001055,0.00009621,0.01174142,0.00635
384,-0.01984437,-0.00007793,-0.00002190,0.00006181,-0.00305687,-0.00291675,0.003
26838,0.10265671,0.05527504,-0.27747516,-0.00068053,0.00080030,0.00078826,-0.001
20255,-0.00299838,-0.00211530,-0.00017609,-0.00007584,0.00005746,-0.00000288,-0.
00002118,0.00001793,0.00003302,-0.00002645,0.00002414,-0.00021990,-0.00028734,0.
00023884,0.00041154,0.00013367,-0.00026891,0.00043640,0.00039360,-0.00059225,-0.
00014287,-0.00004169,0.00001886,-0.00015698,-0.00033587,0.00031013,-0.00010992,-
0.00004281,0.00003313,0.00002637,0.00002687,0.00000281,0.00003862,0.00003531,-0.
00000022,0.00000554,0.00001749,-0.00000682,-0.00011788,-0.00000026,0.00074150,-0
.10884568,-0.05592990,0.29384176\\-0.00000732,0.00000559,0.00000771,-0.00000991,
-0.00000571,0.00000590,0.00000036,-0.00000389,0.00000056,0.00000073,0.00000541,-
0.00000747,0.00000697,0.00000196,0.00000462,-0.00000038,0.00000079,0.00000070,0.
00000222,-0.00000139,-0.00000700,0.00000025,0.00000321,-0.00001617,0.00000182,0.
00000068,-0.00000400,0.00000515,0.00000624,-0.00000198,0.00000235,-0.00000154,0.
00000129,-0.00000204,-0.00000288,0.00000498,0.00001082,0.00000837,0.00000362,-0.
00000058,-0.00000620,0.00000042,-0.00000606,-0.00000860,0.00000758,-0.00000068,-
0.00000044,-0.00000167,0.00000625,-0.00000285,-0.00000738,-0.00000082,0.00000029
,0.00000310,-0.00000268,0.00000479,0.00000591,-0.00000420,0.00000369,0.00001161,
-0.00000140,-0.00000505,-0.00000379,-0.00000085,-0.00000245,-0.00000855\\\@
