1\1\GINC-NODE-001\Freq\RwB97XD\def2SVP\C4H9N1O1\JP2658\30-Dec-2023\0\\# wb97xd d
ef2svp scrf=(iefpcm,solvent=toluene) freq=noraman\\TS-249_opt_sqm.out\\0,1\C,-0.
92959,0.65902,-0.27089\C,-1.90015,-0.21155,0.29082\O,-3.03255,-0.45581,-0.11451\
C,0.34927,0.78111,0.31323\C,2.89857,-0.27559,0.14069\H,2.87544,-0.45534,1.2234\H
,3.5687,-1.00727,-0.33129\H,3.2879,0.73535,-0.038\N,1.53629,-0.35996,-0.38447\H,
1.11701,-1.28038,-0.23615\H,1.49787,-0.1911,-1.39164\H,0.92409,1.69589,0.11992\H
,0.44385,0.45176,1.35814\H,-1.17843,1.21076,-1.18238\H,-1.53866,-0.71137,1.24224
\\Version=ES64L-G16RevC.01\State=1-A\HF=-287.4473884\RMSD=7.372e-09\RMSF=6.407e-
06\ZeroPoint=0.1302582\Thermal=0.1375446\ETot=-287.3098438\HTot=-287.3088996\GTo
t=-287.3490114\Dipole=4.5367683,-0.2742062,-0.1082834\DipoleDeriv=-1.867503,-0.0
745,0.1846392,-0.8184762,-0.7124924,-0.1731435,0.1939776,-0.1305491,-0.3713709,2
.3567487,0.5119927,0.2194127,1.11501,0.6092935,-0.2839713,-0.0926918,-0.2820646,
0.7613167,-2.1184418,-0.3671177,-0.1907948,-0.4474457,-0.5870018,0.0261136,-0.46
36447,-0.0525633,-0.6259509,2.7472309,-0.205107,-0.0942803,-1.1301923,0.4950468,
0.1381692,-0.2490154,0.2401692,0.2750562,0.4629951,0.0145083,0.1055639,0.2556696
,0.1048435,0.0086685,0.3556419,-0.0078865,0.1529879,0.0395721,-0.0176251,0.04673
69,-0.0128273,0.09751,0.0263626,-0.054563,0.0271038,-0.0554122,-0.1712644,0.0602
371,0.0057055,0.0618098,0.0233277,-0.0533245,-0.031338,-0.0573817,0.0566238,0.03
57055,-0.000002,-0.0257087,-0.0918834,-0.0412626,0.0249272,-0.0163511,0.0443505,
0.0857281,-1.6584515,0.1470834,0.0359229,0.9883951,-0.3722483,-0.0967005,0.42669
9,-0.1427805,-0.2353656,0.13318,-0.0262765,-0.0246014,-0.0374662,0.2068084,0.010
2118,-0.0311898,-0.0133012,0.1789991,0.1585266,-0.0035478,-0.0437235,-0.0154231,
0.196583,-0.0151639,-0.0558572,-0.0003871,0.1969657,-0.1304945,-0.1086316,0.0217
354,-0.0031292,-0.0604495,-0.0122817,0.1599348,0.0227199,0.0550086,-0.0132974,0.
0168053,-0.0190274,0.1647732,0.0260563,0.0902229,-0.0204791,0.0058293,-0.0915551
,0.0219437,-0.0310307,-0.0591845,-0.054217,0.0870347,0.1411613,-0.0706743,0.1584
373,-0.0503864,0.00355,0.0832116,-0.1623962,0.0254027,-0.0730492,0.1687482,-0.05
04488,0.1883039,-0.3326451\Polar=107.1951791,5.008852,52.9661552,2.2095153,-5.27
85712,53.9025947\Quadrupole=-6.2505639,2.6163373,3.6342266,-2.9166628,-2.015995,
-0.2100828\PG=C01 [X(C4H9N1O1)]\NImag=1\\0.62762834,0.13342989,0.33693379,0.1270
0127,-0.25244325,0.50757523,-0.16269087,-0.08480663,0.05574816,0.86155441,-0.088
72940,-0.16240396,0.08758783,0.19792725,0.38530549,0.05728202,0.09022184,-0.1488
5401,0.15974864,-0.13377550,0.49022098,-0.07511893,-0.03934490,-0.00932265,-0.59
458899,-0.10775597,-0.19220389,0.68264276,-0.04590492,0.00445262,-0.00885302,-0.
10970557,-0.10674530,-0.02472005,0.14496018,0.08029598,0.00207014,-0.00540433,0.
02802530,-0.18903388,-0.02318997,-0.16535279,0.22559503,0.02706754,0.14297684,-0
.25382600,-0.00730578,-0.11159767,-0.06995145,-0.03822624,0.00685750,0.03160073,
0.00731432,0.00733271,0.42882961,-0.06753014,-0.09662007,0.00374188,-0.00545445,
0.00574742,-0.02249132,-0.01561038,-0.00184271,0.00413722,0.24692879,0.42137729,
-0.12371334,0.00850099,-0.15207098,0.00359419,-0.00558655,0.00672373,0.00522991,
0.00480058,0.00205897,0.14879947,-0.14459004,0.55577757,0.00138908,0.00361281,0.
00267220,-0.00143758,-0.00033509,0.00053515,0.00121707,0.00014218,0.00013137,-0.
02348306,0.00619115,-0.00166528,0.51701653,0.00854164,-0.00002713,-0.00208099,-0
.00323129,-0.00388615,0.00124146,0.00275294,0.00142045,0.00071633,-0.00000308,0.
00992930,0.00941640,-0.00609521,0.61647249,0.00830420,0.00059534,-0.00059770,-0.
00361635,-0.00348446,0.00182545,0.00295822,0.00131312,0.00058326,-0.00752291,0.0
1104587,0.00855859,-0.04097572,-0.00845236,0.60299250,-0.00011033,-0.00009884,0.
00033113,0.00001274,0.00000697,-0.00008623,0.00003947,0.00000422,0.00003350,0.00
170621,-0.00083015,-0.00145074,-0.05069801,-0.00410103,0.02055476,0.05786122,-0.
00002783,-0.00015940,-0.00016635,0.00002107,0.00010772,-0.00007970,-0.00006690,-
0.00005733,0.00000099,-0.00006388,-0.00014621,0.00051711,-0.00159474,-0.05815863
,0.04784716,0.00277959,0.05359122,-0.00087161,-0.00046415,0.00004537,0.00048063,
0.00049458,-0.00028366,-0.00038029,-0.00016024,-0.00004553,0.00250160,-0.0011066
7,0.00026919,0.01081937,0.04673629,-0.32273598,-0.00620771,-0.05017645,0.3433677
8,-0.00441868,-0.00055125,0.00046339,0.00212941,0.00216264,-0.00091890,-0.001727
56,-0.00079358,-0.00037258,0.00669606,-0.00679360,-0.00436864,-0.14217337,0.1082
3724,0.07211544,0.00056323,-0.00023572,-0.00042061,0.16093027,-0.00056161,0.0001
2961,-0.00018612,0.00027917,0.00012540,-0.00012627,-0.00012867,-0.00004094,-0.00
001984,0.00003320,0.00005020,-0.00009059,0.11194790,-0.17833393,-0.08492120,-0.0
0509450,0.00500959,0.00384223,-0.11935948,0.18145343,-0.00205399,-0.00038717,0.0
0041158,0.00078192,0.00096673,-0.00033362,-0.00066612,-0.00033427,-0.00016808,0.
00208268,-0.00230091,-0.00137023,0.07558243,-0.08617322,-0.10628320,0.01738539,-
0.02136324,-0.00975749,-0.07485039,0.09004400,0.10525241,-0.00011817,0.00033064,
-0.00012938,0.00017064,0.00005042,0.00004533,-0.00004049,0.00001347,-0.00003916,
0.00180021,-0.00213371,-0.00030353,-0.07920178,-0.08031075,0.01443646,-0.0002542
0,0.00016816,0.00000881,0.00808671,0.01720790,-0.00444796,0.09294077,-0.00069456
,-0.00034714,-0.00017878,0.00049417,0.00025411,-0.00016824,-0.00033257,-0.000085
75,-0.00006118,0.00213691,0.00005253,-0.00013649,-0.08915550,-0.29220300,0.04569
290,0.00002631,-0.00164053,-0.00134693,-0.00782339,-0.01517610,0.00524648,0.0968
4018,0.30464554,-0.00003788,-0.00015751,-0.00008738,0.00011441,-0.00001689,-0.00
011085,-0.00010064,-0.00002217,-0.00000198,0.00062619,-0.00000596,-0.00024487,0.
01822178,0.04884283,-0.05935599,0.01041650,0.02825625,-0.00144567,-0.00570687,-0
.01334857,0.00288990,-0.01267843,-0.04785648,0.05566672,-0.06386948,-0.00004787,
0.00452210,0.02087279,0.02421669,-0.00935499,-0.01564697,-0.00801443,-0.00355479
,0.03894758,-0.05194905,-0.01791674,-0.21395471,-0.00273848,-0.03790609,-0.00378
661,-0.00063019,-0.00345566,-0.03080141,-0.00463055,-0.01428175,-0.01883683,-0.0
0115842,-0.00817987,0.45365289,0.03135500,0.01919374,0.00964612,-0.01401838,-0.0
1027174,0.00717960,0.00907366,0.00322678,0.00104115,-0.07259613,-0.02243504,0.00
979159,-0.02840843,-0.10002703,-0.00332571,0.00835785,0.00066361,0.00249433,0.02
406783,0.00575142,0.01339609,-0.03386557,0.00249820,-0.01482720,0.19807657,0.546
90583,0.00680795,0.01361772,0.01590519,-0.00396992,-0.00392656,0.00161208,0.0029
1319,0.00111939,0.00055526,-0.03678618,0.01710135,-0.05296933,-0.06241158,0.0051
6061,-0.12131020,-0.04009762,-0.00342568,-0.01055527,0.01252220,0.00395059,0.007
85507,0.00620642,-0.00090420,0.00254458,0.08512954,-0.13553524,0.65779371,-0.000
34085,-0.00306087,-0.00197425,-0.00062453,0.00021949,-0.00041323,0.00005523,-0.0
0010345,0.00022524,0.01095188,0.01158908,-0.00273746,-0.01205264,-0.03065739,0.0
0614897,0.00112869,0.00014887,-0.00023499,0.00021578,-0.00000651,0.00071592,-0.0
0522838,0.00089892,-0.00283233,-0.11098917,-0.13248723,0.01803879,0.11902244,-0.
00126335,0.00143409,0.00052692,0.00136304,0.00111741,-0.00023298,-0.00097969,-0.
00050739,-0.00035479,-0.00090621,-0.01193270,0.00066039,0.00482473,0.00505828,-0
.00133605,-0.00022023,0.00019684,0.00015653,0.00028478,0.00075467,-0.00010603,0.
00093322,0.00097249,0.00001931,-0.15420426,-0.36042923,0.06858535,0.14968565,0.3
6833748,-0.00032370,0.00101776,-0.00085982,0.00008789,-0.00037991,0.00124773,-0.
00015549,0.00008768,-0.00041541,-0.00338918,-0.00919099,0.00205486,-0.00380088,-
0.01432531,0.00283306,-0.00018172,-0.00078304,-0.00003255,0.00032026,0.00054764,
0.00028371,-0.00308059,-0.00061825,-0.00050507,0.01311661,0.05289978,-0.06402237
,-0.01916100,-0.06332064,0.06560427,0.00091334,-0.00153103,-0.00324917,-0.001208
45,-0.00101207,0.00021776,0.00064535,0.00024802,0.00011761,0.00325919,-0.0034051
6,0.01310135,-0.00010491,0.00694381,-0.03623706,-0.00633506,-0.00068928,-0.00164
077,0.00053455,0.00066099,-0.00000948,0.00091261,-0.00060327,0.00016063,-0.05310
180,-0.00930068,-0.00456864,0.00011698,-0.00097931,0.01551501,0.05629873,-0.0013
4563,0.00024098,0.00147074,0.00058160,0.00042291,0.00010156,-0.00032348,-0.00014
462,-0.00009679,-0.00049181,0.00340717,-0.01446722,0.00185137,-0.00009325,-0.003
14424,-0.00071767,0.00069594,-0.00106733,-0.00000013,-0.00000622,0.00065331,-0.0
0024597,0.00016035,-0.00089477,-0.00867111,-0.05888000,0.05828512,0.00144482,-0.
00462125,0.03589516,0.00609604,0.06192843,-0.00141941,-0.00085586,0.00102308,0.0
0096827,0.00053648,-0.00032021,-0.00088424,-0.00029093,-0.00023545,0.00443306,-0
.00166383,-0.00592678,0.00270463,-0.00008195,-0.00516167,-0.00151763,-0.00046314
,0.00088977,0.00014204,0.00013446,0.00078620,0.00008880,-0.00001154,0.00030825,-
0.01986498,0.08112017,-0.42335530,-0.00069877,-0.00291171,-0.00406903,0.01596453
,-0.07499799,0.43544393,-0.01464265,-0.02452938,0.00752453,0.00147977,-0.0019010
7,-0.00883105,-0.00397016,-0.00020821,0.00152714,-0.12177575,-0.12804832,0.02769
637,0.00224329,0.00098378,0.00028819,-0.00001738,0.00003705,-0.00014215,-0.00003
668,-0.00043109,0.00013280,-0.00020677,-0.00056643,-0.00001408,0.00107449,0.0197
4579,0.00006917,-0.00247679,0.00164882,0.00135668,0.00034391,-0.00038832,-0.0002
3082,0.13574048,0.00269426,0.00521487,0.00228539,-0.00157380,0.00175367,0.000902
17,0.00094047,-0.00039157,-0.00012466,-0.13199930,-0.23680195,0.04936962,-0.0014
0020,-0.00043428,-0.00057790,0.00009795,-0.00008503,0.00010227,0.00063174,0.0003
1741,0.00016595,0.00086785,0.00076849,-0.00012973,0.00206925,-0.02299611,-0.0020
8777,0.00260789,-0.00086343,-0.00170090,-0.00007432,-0.00035687,0.00011256,0.127
82587,0.25702182,-0.00461718,-0.00928565,0.00730259,-0.00280873,0.00160582,-0.00
017847,0.00065819,-0.00064708,0.00050817,0.01905154,0.05422965,-0.06132067,-0.00
137832,-0.00024760,-0.00043684,0.00013320,0.00009949,0.00009993,0.00027473,0.000
08431,0.00004188,-0.00014508,0.00030064,0.00032321,0.00211394,-0.01778744,-0.001
03897,0.00212019,-0.00162684,-0.00107982,-0.00030968,-0.00048004,0.00024174,-0.0
2981263,-0.04688002,0.05590505,-0.00179975,0.00886792,-0.02611942,-0.00009141,0.
00529772,-0.00185875,-0.00016757,-0.00127231,0.00041966,-0.04693151,0.00233230,-
0.02519048,0.00138166,-0.00013858,0.00150172,-0.00017981,0.00016565,-0.00059220,
-0.00004665,0.00009505,-0.00050771,-0.00002463,-0.00005731,0.00006047,-0.0055897
0,0.00111120,0.01709026,0.00021770,-0.00026989,-0.00012524,-0.00184584,0.0019554
3,0.00033390,0.00190014,-0.00331878,0.01384349,0.05580181,0.00599191,0.00508496,
-0.00047445,-0.00288808,-0.00441458,-0.00221032,0.00213655,0.00102281,0.00092181
,-0.00599406,-0.07271419,0.08730694,-0.00168365,0.00008187,-0.00110966,-0.000181
14,0.00001247,0.00059310,0.00017119,-0.00005414,0.00027098,0.00015003,0.00009141
,0.00007962,0.00831683,-0.00243910,-0.02199852,-0.00024598,0.00053380,-0.0003389
5,0.00282290,-0.00253366,-0.00105244,0.00319302,-0.00269805,0.02188638,-0.010354
77,0.07430911,-0.00265351,0.00583705,-0.00770599,0.00397505,0.00116034,-0.000127
93,-0.00070950,-0.00003277,0.00041437,-0.02763278,0.08600664,-0.29486231,-0.0004
4354,-0.00025958,-0.00028300,0.00057291,-0.00026388,0.00013345,0.00043684,0.0000
0501,0.00030404,0.00007321,-0.00001136,-0.00001162,0.00556270,-0.00259731,-0.012
40672,0.00019177,-0.00010810,-0.00049652,0.00114207,-0.00153070,0.00020914,-0.00
164789,-0.00035257,-0.00056099,0.02309046,-0.08606668,0.31494128,-0.06328758,0.0
2400780,-0.05736938,0.00789396,-0.00936788,0.01691282,0.00088828,0.00322388,-0.0
0122914,-0.00404465,0.01394361,-0.02316974,-0.00009330,0.00013599,0.00024972,0.0
0005936,-0.00002936,0.00008854,-0.00013233,-0.00002995,0.00005836,0.00000074,-0.
00003005,-0.00004931,0.00015922,0.00003844,-0.00078700,-0.00007229,-0.00008557,-
0.00004500,-0.00035790,0.00022266,-0.00006330,-0.00010606,0.00055949,0.00110307,
-0.00288270,-0.00144982,-0.00169271,0.06334502,0.02340143,-0.11060969,0.13668799
,0.00920213,-0.00544236,0.01539472,0.00067065,-0.00057256,-0.00437915,-0.0027787
2,0.00370879,-0.00652081,0.00016287,0.00002109,-0.00029735,-0.00002050,-0.000034
11,-0.00005460,0.00010723,0.00003313,-0.00002835,-0.00002233,0.00001027,0.000041
42,0.00059431,-0.00125484,0.00025347,0.00004402,-0.00003437,0.00008068,0.0006308
0,-0.00009241,0.00038693,0.00258678,-0.00042442,-0.00114139,-0.00380643,0.002993
61,-0.00055697,-0.02710008,0.11089485,-0.05952241,0.13468369,-0.23950911,-0.0073
0350,0.00295797,-0.00768243,0.00157938,-0.00266237,0.00077635,0.00158607,0.00458
832,-0.00701579,0.00010644,0.00007593,-0.00008570,0.00007005,-0.00003727,-0.0000
3150,0.00004583,0.00003945,-0.00003612,-0.00000680,0.00000409,0.00001519,0.00056
652,-0.00112542,0.00020552,0.00012620,-0.00009477,-0.00006250,0.00001100,0.00018
091,0.00007333,0.00141586,-0.00084093,-0.00023705,-0.00347901,0.00213005,0.00012
937,0.06459518,-0.14389837,0.25313530,0.01029251,-0.00897249,0.01149913,-0.06352
044,0.01744654,-0.02793218,-0.02582823,0.01009621,-0.04322286,-0.00377905,0.0007
7003,0.00209467,-0.00004827,-0.00031960,-0.00029956,0.00001047,0.00001751,0.0000
4706,0.00018067,0.00001813,0.00007790,-0.00000044,0.00002501,-0.00000055,0.00186
970,-0.00114992,-0.00015658,0.00007596,0.00016827,-0.00013367,-0.00007072,0.0000
3219,0.00004393,0.00045017,0.00007164,-0.00022672,0.00025827,0.00001505,-0.00026
509,-0.00136979,-0.00367215,0.00020920,0.08147918,0.00064330,-0.00251728,0.02243
608,0.01180976,-0.10167004,0.06876303,0.00400811,0.01996952,-0.00025435,0.003951
99,-0.00177984,0.00102807,-0.00006018,0.00017993,0.00015452,-0.00000882,0.000003
85,-0.00004298,-0.00010548,-0.00001352,-0.00005036,0.00001646,-0.00000088,0.0000
1986,-0.00122928,0.00049351,-0.00019564,-0.00007732,-0.00001670,0.00012932,0.000
19254,-0.00012750,0.00003878,0.00005170,-0.00002456,-0.00011024,-0.00060718,0.00
072369,-0.00122913,-0.00403917,0.00080304,0.00399872,-0.01454642,0.08397679,-0.0
0625255,0.01452355,-0.01060336,-0.01876678,0.07505007,-0.17838600,-0.03451108,0.
00333458,-0.00967928,-0.00634209,0.00049879,0.00033804,-0.00009805,-0.00056886,-
0.00054258,0.00004421,0.00003776,0.00008215,0.00031727,0.00004488,0.00012395,-0.
00002811,0.00004935,0.00001558,0.00350347,-0.00237052,-0.00081326,0.00048496,0.0
0014340,-0.00048054,-0.00021516,0.00009227,0.00009299,0.00066787,-0.00024348,0.0
0043024,0.00153284,0.00006214,0.00032343,0.00139787,0.00403175,0.00032516,0.0582
6533,-0.09468569,0.19877347\\0.00000227,-0.00000327,0.00000442,-0.00000193,0.000
00297,0.00000863,0.00000084,0.00000249,0.00001456,0.00000446,0.00000449,-0.00000
192,-0.00000607,0.00000673,-0.00001019,0.00000306,0.00000305,0.00000026,0.000000
79,-0.00000781,-0.00000647,-0.00000004,-0.00000564,-0.00001004,0.00000590,0.0000
1097,-0.00000801,-0.00000780,-0.00001334,0.00000699,-0.00000359,-0.00001003,0.00
000497,-0.00000089,-0.00000225,-0.00000986,0.00000390,0.00000667,-0.00000014,-0.
00000357,-0.00000393,-0.00000274,0.00000265,0.00000890,0.00000954\\\@
