1\1\GINC-NODE-001\Freq\RwB97XD\def2SVP\C6H12F1N1\JP2658\30-Dec-2023\0\\# wb97xd 
def2svp scrf=(iefpcm,solvent=toluene) freq=noraman\\allylic-1_1_opt_hf_reopt.out
\\0,1\C,-0.92358,-0.45812,-0.94045\C,2.39617,-0.19954,0.26518\C,-0.97616,1.89387
,-0.52756\C,2.2885,0.6847,-0.71418\N,-1.24048,0.48661,-0.13416\H,3.15053,0.83681
,-1.36567\H,-0.31279,2.25829,0.28743\H,3.27828,-0.80437,0.49239\H,-1.9389,2.4131
4,-0.3344\H,-0.53476,-0.0908,-1.89488\H,1.37223,1.26704,-0.88852\F,1.38844,-0.45
93,1.11896\C,-1.01657,-1.9185,-0.66219\H,-0.66189,-2.48847,-1.52839\H,-0.39467,-
2.17767,0.20827\H,-2.05159,-2.22495,-0.44489\C,-1.77182,0.20672,1.19803\H,-2.626
96,0.8725,1.36694\H,-2.08259,-0.83788,1.32802\H,-0.98875,0.449,1.92924\\Version=
ES64L-G16RevC.01\State=1-A\HF=-389.8994873\RMSD=3.044e-09\RMSF=9.189e-06\ZeroPoi
nt=0.1695401\Thermal=0.1803552\ETot=-389.7191321\HTot=-389.7181879\GTot=-389.766
937\Dipole=-0.1120614,-2.3163978,0.631214\DipoleDeriv=0.1594677,-0.0242057,-0.07
89804,-0.0132811,0.6934847,0.1187736,-0.0437231,0.0271643,0.2315026,0.7722013,0.
1663069,-0.529153,-0.0221967,0.2996681,-0.3634377,-0.4076745,-0.4993663,0.710684
9,-0.2913864,0.0100512,0.0759254,0.0190416,-0.2448399,0.0290818,0.0500107,-0.009
5285,-0.4950821,-0.2744154,0.0630172,-0.1367491,-0.0264107,-0.354799,0.0424424,-
0.0783273,0.0278116,-0.3033919,-0.2736585,0.0511298,0.0563622,0.0880874,-0.23916
89,-0.1520302,0.0144747,0.0434871,-0.2126032,-0.0068799,-0.0073882,0.0736456,0.0
286144,0.1176967,0.0098298,0.0449953,0.0235524,0.0824158,0.0515437,-0.012389,-0.
1548658,0.0048257,-0.0719878,-0.0199435,-0.2894612,-0.1522566,-0.1364715,-0.0075
338,0.0555498,0.0172676,0.1009238,0.0705627,0.0643236,-0.0019116,0.0776294,0.080
207,-0.2946855,0.177627,0.049148,0.0288202,-0.0815579,-0.0319239,0.229549,-0.093
684,0.1521215,0.1169519,-0.0079818,0.0325755,-0.0066309,0.0948345,0.0565971,0.02
8857,-0.0093168,0.0802732,0.346249,-0.0452726,0.042893,-0.0836077,0.1592859,0.02
02413,0.0800383,0.0107259,0.0909981,-0.7873263,-0.2987968,0.5618045,-0.0710731,-
0.2934579,0.2028423,0.3539371,0.3456962,-0.7004467,0.0067917,-0.0609447,-0.02449
96,-0.0248273,-0.273737,0.041505,-0.0089128,0.2545359,0.0076053,0.0929269,0.0397
069,0.0524308,0.0101611,0.0290564,-0.0291022,0.0449583,-0.0801043,-0.0012573,0.0
906418,0.0312756,-0.0492187,0.0209617,0.0273882,-0.0434675,-0.0504273,0.0172867,
0.0276506,-0.0206604,-0.0277722,0.0311839,0.0171802,0.0282657,-0.0249878,0.04048
67,0.0003397,0.1079534,0.2052612,-0.0896506,-0.0612053,0.0046126,0.0246296,-0.01
56951,-0.025463,0.0060159,0.1882474,0.0198456,0.0604215,0.0494589,0.079597,0.047
6047,-0.0050315,-0.0245099,0.0069821,0.0667255,0.0658461,-0.0604744,0.0531252,-0
.101466,-0.1187711,0.0980304,0.0430235,0.0435039,-0.0036455,0.0288192,-0.02021,-
0.0611487,-0.0533323,0.0858424,0.0019519,0.0000799,-0.0404747,0.0265129\Polar=78
.8391619,-4.306887,97.5376764,-7.4827822,-1.734192,80.6593605\Quadrupole=5.95788
53,-5.1433739,-0.8145114,2.7843644,-2.9942359,4.9393379\PG=C01 [X(C6H12F1N1)]\NI
mag=1\\0.27054256,-0.04463685,0.78687843,-0.21961026,0.11776818,0.73416592,-0.00
153535,0.00004466,-0.00348734,0.56551361,-0.00005482,0.00051959,-0.00108285,-0.1
7381983,0.52686000,-0.00032202,-0.00057030,0.00234296,-0.03238974,-0.37084821,0.
58348593,0.00849961,0.00478084,-0.00157276,-0.00287671,-0.00064331,0.00244758,0.
42728610,0.00290472,-0.04916358,-0.01034430,0.00126197,0.00034719,-0.00107542,-0
.03966901,0.34320462,-0.00307391,-0.01877680,0.00980672,-0.00057667,-0.00006749,
0.00049626,0.07063006,0.05973887,0.27196436,-0.00006890,0.00022248,0.00020136,-0
.11658282,0.05819064,-0.03384699,-0.00413012,0.00225568,-0.00190951,0.60552646,0
.00011170,0.00054743,-0.00004479,0.05842706,-0.31160777,0.27173750,0.00241787,-0
.00059289,0.00063782,-0.14838312,0.48446305,-0.00014351,0.00014119,-0.00134951,-
0.03497540,0.27119156,-0.35256515,-0.00131080,0.00029328,-0.00016468,-0.10251805
,-0.36590978,0.58743699,-0.10982536,0.08692976,0.10316096,0.00021114,0.00021886,
-0.00020435,-0.08151603,-0.01969131,-0.00022605,0.00010970,-0.00023699,0.0000286
4,0.28334298,0.08707652,-0.38756776,-0.22221018,0.00130381,0.00025144,-0.0010170
0,-0.00079587,-0.13397598,-0.00654617,0.00008633,0.00002311,0.00005834,-0.077327
57,0.71079698,0.10495939,-0.23027933,-0.33170882,0.00114781,0.00006369,-0.000420
67,0.00141861,0.04086764,-0.07570304,-0.00003224,-0.00055353,0.00080942,-0.17865
381,0.22553489,0.66902319,0.00010972,0.00028281,0.00010149,0.00252720,0.00271349
,-0.00599000,-0.00075543,0.00039580,-0.00031811,-0.24159124,-0.02941242,0.150680
61,0.00004137,0.00014995,-0.00027432,0.24456156,0.00010165,-0.00012261,0.0000628
4,-0.01807962,-0.00106844,0.00811335,0.00058151,-0.00044150,0.00016909,-0.023720
06,-0.04685574,0.03292087,-0.00012459,-0.00020813,0.00012864,0.03038448,0.041387
60,0.00008859,0.00008947,0.00001316,0.01850341,-0.00331393,-0.00874011,-0.000179
80,0.00005490,-0.00009747,0.14371965,0.03606988,-0.15121491,-0.00009390,0.000076
82,-0.00010210,-0.15725545,-0.03823402,0.15415572,-0.00199370,0.00184862,0.00189
989,0.00034104,0.00024579,-0.00050741,-0.11423441,-0.04118152,-0.10784756,0.0004
0667,-0.00061654,0.00004845,-0.00283337,-0.00743457,-0.00546862,0.00010574,-0.00
005482,0.00002849,0.13819466,-0.00196806,-0.00129771,0.00293254,0.00025112,-0.00
005739,-0.00014438,-0.03987896,-0.06067694,-0.04696229,0.00008858,-0.00009996,0.
00013558,-0.02531293,-0.02749997,-0.02879046,-0.00003928,0.00005663,0.00000548,0
.05471277,0.08501027,0.00080111,-0.00168648,-0.00023143,-0.00040218,-0.00037995,
0.00051458,-0.14547936,-0.07392513,-0.17048585,-0.00005806,0.00109767,0.00081999
,0.00826311,0.01032226,0.00036680,-0.00023660,0.00018652,-0.00006969,0.13247096,
0.06322730,0.16876740,0.00010934,0.00010576,0.00028045,-0.23346667,0.13537092,-0
.05378153,0.00009461,-0.00005196,0.00002220,0.00577254,-0.00141109,0.00320982,-0
.00000139,-0.00014078,-0.00000967,-0.00028854,-0.00123515,-0.00159067,0.00000856
,-0.00004638,-0.00006840,0.25531110,0.00000583,-0.00012090,0.00008087,0.13676329
,-0.14354008,0.04486237,0.00046073,-0.00015409,0.00017837,0.01663938,-0.00196465
,0.00343927,0.00010412,-0.00012912,0.00001318,-0.00156672,-0.00282397,-0.0027504
9,-0.00004177,-0.00001962,-0.00006063,-0.14406504,0.13562497,-0.00004693,0.00006
278,-0.00013350,-0.05570314,0.04556322,-0.06467913,-0.00049401,0.00021255,-0.000
13105,-0.01801448,0.01337161,0.00299577,0.00017267,0.00012363,-0.00000890,-0.001
23534,-0.00290413,-0.00181586,0.00010548,-0.00000592,-0.00023233,0.04230025,-0.0
5281474,0.06216067,-0.00000133,-0.00025889,-0.00084251,-0.00050080,-0.00031819,0
.00061241,-0.23943478,0.10809989,0.02819065,-0.00039460,0.00028432,0.00033365,0.
00536560,-0.00765311,0.00438545,-0.00029962,0.00024864,-0.00008214,-0.01997512,0
.01008797,0.00482476,-0.00002190,0.00009573,-0.00017173,0.25296664,-0.00114897,-
0.00234813,0.00360514,-0.00050091,-0.00013044,0.00037495,0.08661939,-0.08692593,
-0.01586026,-0.00039609,0.00039361,0.00008262,0.03325569,-0.03074191,-0.00666586
,-0.00010469,0.00009463,-0.00002582,-0.00919277,0.00591878,0.00130547,0.00000591
,0.00002610,-0.00009358,-0.10898265,0.11506906,-0.00082305,-0.00044208,0.0014709
0,0.00085041,0.00024735,-0.00087330,0.06399058,-0.03580246,-0.02730988,0.0012475
7,-0.00098343,0.00046641,-0.00515560,0.00483824,-0.00505164,0.00024991,-0.000182
34,0.00006242,-0.02247565,0.01079620,0.00194842,-0.00000627,-0.00014788,0.000210
64,-0.03531248,0.02038431,0.02693871,-0.08509410,-0.03273460,0.09062885,0.000016
43,0.00003608,-0.00014460,-0.00764642,-0.00190322,-0.00293244,-0.00037017,-0.000
04644,0.00009072,0.00216256,-0.00051464,0.01489767,-0.00003799,-0.00006145,-0.00
004834,0.00109142,-0.00150025,-0.00168504,0.00000131,-0.00002074,0.00000207,0.00
020468,0.00102397,0.00106849,0.07212071,-0.03764547,-0.08216746,0.09604506,0.000
16970,-0.00009274,-0.00005517,0.00113719,0.00018320,-0.00163089,-0.00005739,-0.0
0004555,-0.00005200,0.01120273,0.00722379,-0.02790633,0.00005323,-0.00004113,0.0
0001398,-0.00012775,-0.00074012,0.00035199,0.00000085,-0.00002359,0.00005233,-0.
00023925,-0.00062157,0.00060260,0.03465270,0.08909316,0.09069346,0.08104591,-0.2
7492254,0.00000870,0.00013597,-0.00023017,-0.00255772,0.00462585,-0.00121411,-0.
00001566,0.00023736,0.00015430,0.01281410,0.00343208,-0.02366273,0.00011376,-0.0
0003775,0.00002759,0.00034595,-0.00047274,-0.00001686,-0.00000428,-0.00004341,0.
00001406,-0.00033008,0.00055035,0.00091189,-0.10686581,-0.08471681,0.29211195,-0
.00102792,-0.00076583,-0.00034601,0.00752153,0.00002304,0.00101537,0.00280255,-0
.00229878,0.00294406,-0.24872241,0.12869959,-0.03368409,-0.00186263,-0.00107326,
0.00105208,-0.00782164,0.00910938,-0.00524716,-0.00206325,0.00035752,0.00159721,
0.00173858,0.00115791,0.00316244,0.00106671,0.00050233,-0.00274084,-0.00056347,-
0.00093773,-0.00036577,0.25118905,-0.00136083,-0.00128060,0.00048884,0.01662258,
-0.00240344,0.00488317,-0.00116716,-0.00058027,-0.00134103,0.12658577,-0.1263723
4,0.03220443,-0.00076759,0.00031136,0.00074797,-0.00673979,0.00585385,-0.0008647
8,0.00126310,-0.00026834,-0.00135741,0.00171347,0.00405065,0.00586799,-0.0003483
1,-0.00042120,0.00093350,-0.00070062,-0.00020170,-0.00032513,-0.13335623,0.12496
324,-0.00031052,0.00006612,0.00069094,-0.01778841,0.01425802,0.00262396,0.001500
35,0.00036808,0.00014288,-0.03051958,0.03061839,-0.05667800,0.00054964,-0.000224
82,-0.00091974,0.01321668,-0.00968729,0.00578708,0.00094826,-0.00044605,-0.00164
233,0.00238727,0.00616948,0.00127887,-0.00061907,-0.00020116,-0.00050447,-0.0004
8698,-0.00060626,-0.00032384,0.03316648,-0.03481135,0.05070050,-0.00088052,0.000
01220,0.00227161,-0.21924028,-0.02161734,0.12177754,0.00178862,-0.00114458,0.000
34454,-0.00068900,-0.01061469,0.01854659,-0.00309846,-0.00054898,-0.00203362,0.0
0330635,0.00284109,0.00215739,-0.00025015,-0.00024184,0.00046613,-0.02941507,-0.
00942040,0.03008532,0.00035378,0.00043017,-0.00050615,-0.00001173,-0.00008252,-0
.00000227,-0.00284878,-0.00132433,-0.00225496,0.25247867,0.00031546,-0.00121318,
0.00062498,-0.02018649,-0.06862588,0.04206964,0.00042447,-0.00011372,-0.00005382
,-0.03151703,0.00150046,0.02591083,0.00049195,-0.00030547,0.00040900,0.00400652,
0.00404074,0.00895849,-0.00017758,0.00038418,0.00047548,0.00962268,0.00897888,-0
.00920654,0.00029981,0.00015081,-0.00022703,-0.00001362,0.00002515,-0.00006241,-
0.00275515,-0.00276714,-0.00582441,0.03967047,0.05792107,-0.00105509,0.00058164,
-0.00150332,0.12298359,0.04342983,-0.16040789,-0.00159670,0.00033529,-0.00016104
,0.04174313,0.01395105,-0.03124826,-0.00180396,0.00097658,-0.00122771,0.00093016
,0.00952979,0.00197568,0.00044217,0.00009808,-0.00023646,0.00744757,0.00107602,0
.00011294,-0.00038988,-0.00017139,0.00053257,0.00029678,0.00009356,0.00018502,-0
.00036408,-0.00647402,-0.00100113,-0.16739006,-0.06194399,0.19331708,-0.08293567
,-0.00900358,0.01148747,0.00028012,0.00023978,-0.00018868,0.01023287,-0.00044019
,0.00363097,0.00003531,-0.00016842,-0.00000202,0.01101655,0.00778548,-0.00394875
,0.00000060,0.00000800,0.00000685,-0.00180492,0.00277952,0.00214338,0.00001823,0
.00000897,0.00005110,-0.00012548,-0.00183716,-0.00209099,0.01071692,-0.00752805,
0.00354634,-0.00012325,0.00016873,0.00005651,-0.00042089,-0.00055897,-0.00028332
,0.55711017,-0.01391158,-0.24168202,0.03545823,0.00025383,-0.00000627,-0.0002391
8,0.00097572,0.00154782,-0.00085578,-0.00006924,-0.00001263,0.00004596,0.0013431
0,-0.03038045,-0.00251521,0.00000269,0.00003110,0.00002245,0.00009944,-0.0010216
2,-0.00047159,-0.00003970,0.00000426,0.00000150,0.00005550,-0.00118339,-0.000562
96,0.00132057,-0.00485758,-0.00171729,0.00023369,-0.00006180,-0.00001968,-0.0004
7275,-0.00037861,0.00020044,-0.00630233,0.52596835,0.01114853,0.03105279,-0.1018
9975,-0.00042427,-0.00012835,0.00011665,0.00507280,0.00245526,0.00123502,-0.0000
5959,-0.00008761,-0.00014987,-0.00257662,-0.02425499,0.01149607,0.00004444,0.000
01262,0.00001548,-0.00074174,0.00081619,0.00129066,0.00001103,-0.00002579,0.0000
1592,-0.00048519,-0.00126037,-0.00078363,0.00288033,0.01749954,0.00437447,-0.000
27679,0.00005190,0.00001040,0.00005995,0.00014701,0.00013949,-0.01617048,0.02942
377,0.58911140,-0.00145311,-0.00286566,-0.00320628,0.00020477,0.00010883,-0.0002
1171,0.00049862,-0.00001763,0.00005577,0.00002193,0.00000661,0.00014656,0.000961
50,-0.00092699,0.00051003,-0.00000458,-0.00000883,0.00000542,0.00000294,0.000143
99,-0.00006854,-0.00004259,-0.00001227,-0.00001197,-0.00004512,-0.00013860,0.000
09337,0.00005586,-0.00016241,-0.00033878,0.00001671,-0.00001886,-0.00002378,-0.0
0026940,-0.00007845,0.00012542,-0.07738988,0.04925898,0.07499275,0.07705980,0.01
193885,-0.01501216,-0.02888414,0.00008825,0.00006219,-0.00008396,0.00027866,0.00
047959,-0.00051893,0.00000702,0.00002121,0.00009097,-0.00113920,-0.00630360,0.00
245089,-0.00002827,-0.00000109,-0.00001075,-0.00003683,-0.00033938,-0.00003330,-
0.00001735,0.00000051,-0.00001229,-0.00001768,-0.00038715,0.00004388,-0.00004514
,0.00073201,0.00016642,0.00008935,-0.00004268,-0.00003782,-0.00009387,0.00002507
,0.00002340,0.04688893,-0.12189896,-0.11414750,-0.05098786,0.13373621,-0.0041156
0,0.00755787,0.00702692,0.00025114,0.00006404,-0.00026531,0.00011991,-0.00003966
,0.00025834,-0.00002741,-0.00000584,0.00009969,0.00046891,0.00233574,0.00028094,
-0.00000390,-0.00000462,0.00001013,0.00004951,0.00009330,-0.00005544,-0.00005061
,-0.00000843,-0.00000210,-0.00003941,-0.00002304,0.00000111,-0.00033514,0.000360
97,0.00059687,0.00002029,-0.00001648,-0.00000906,-0.00035791,-0.00011583,0.00013
169,0.07529311,-0.12005796,-0.23111615,-0.08071433,0.12414196,0.24149868,0.00061
130,-0.00111228,0.00408601,-0.00111798,-0.00037248,0.00069097,-0.00019475,0.0001
1264,0.00016403,0.00020295,0.00016074,-0.00014683,0.00097637,0.00028553,-0.00027
112,-0.00000666,0.00002818,-0.00003379,0.00002641,0.00001577,-0.00010179,0.00003
747,-0.00001063,-0.00002561,-0.00005662,0.00004597,-0.00004415,-0.00124716,-0.00
073205,-0.00013186,0.00006831,-0.00005021,0.00000348,-0.00019698,-0.00010885,-0.
00102439,-0.13099691,0.03785014,-0.12547655,0.00695667,-0.00388648,0.00985859,0.
13899668,0.01980837,-0.00829777,0.02609051,-0.00204400,-0.00044489,0.00156860,-0
.00227296,-0.00098410,-0.00121976,0.00037102,0.00027505,-0.00032485,-0.00193709,
0.00125283,0.00094047,-0.00001720,0.00004697,-0.00007568,0.00045504,-0.00071267,
-0.00078193,0.00018960,0.00001996,-0.00012258,0.00007381,0.00026455,0.00081247,-
0.00113422,-0.00229659,-0.00073875,0.00028338,-0.00014428,0.00002746,0.00162034,
0.00042431,-0.00125244,0.03886786,-0.05904632,0.05002478,-0.01071567,0.00408094,
-0.01216766,-0.04008874,0.06423895,-0.00058943,0.00461678,-0.00393899,0.00026861
,0.00028938,0.00002404,0.00018859,0.00040765,-0.00013890,0.00002886,-0.00005544,
-0.00000296,0.00114333,-0.00247264,-0.00115346,-0.00002035,-0.00002112,-0.000025
83,-0.00032810,-0.00011510,0.00028548,0.00005113,0.00002159,0.00004039,-0.000028
34,-0.00008800,-0.00012270,-0.00020381,0.00085641,0.00051405,-0.00006345,0.00005
449,0.00000514,-0.00086368,-0.00093318,-0.00091738,-0.12726685,0.04749933,-0.220
00675,-0.01404878,0.00720103,-0.01526091,0.13563826,-0.05442818,0.23391412,0.002
08034,-0.00090020,-0.00053569,0.00021353,0.00006018,-0.00013271,-0.00003027,-0.0
0024996,-0.00039472,-0.00001545,-0.00004046,0.00000864,0.00031846,0.00078596,0.0
0187318,-0.00000114,-0.00000646,0.00000073,-0.00018042,-0.00002061,0.00010546,0.
00000502,0.00001051,0.00002558,-0.00004911,0.00006088,-0.00016957,-0.00057103,0.
00006871,-0.00095854,-0.00004325,0.00003880,0.00000016,-0.00022046,-0.00018569,0
.00001086,-0.29086347,-0.06993971,0.05253252,-0.00662218,-0.00263065,-0.00058395
,-0.01379332,-0.00470997,0.00562115,0.30949182,-0.03175201,-0.00777766,0.0059456
7,-0.00005501,-0.00002899,0.00005348,0.00207478,-0.00061209,0.00004404,0.0000177
2,0.00000016,0.00002641,0.00181385,0.00053342,0.00134020,-0.00002381,0.00001075,
-0.00000622,-0.00049468,0.00037322,0.00055705,-0.00001792,0.00000373,-0.00002356
,0.00009013,-0.00053888,-0.00040904,0.00125253,-0.00251973,0.00030088,0.00006771
,-0.00000580,-0.00000752,0.00006540,0.00009325,-0.00003825,-0.07281626,-0.065237
74,0.01317529,0.01604581,0.00479314,-0.00175750,0.00758701,0.00180483,-0.0022473
2,0.07669557,0.06985520,0.00462665,0.00468283,-0.00450287,0.00034506,0.00012663,
-0.00022879,-0.00012743,0.00006498,-0.00012183,-0.00001969,0.00001063,0.00008083
,0.00070310,-0.00161543,-0.00073599,-0.00000443,-0.00001978,0.00000107,0.0001557
1,-0.00012029,-0.00016864,-0.00001625,0.00000008,0.00001478,0.00001446,-0.000091
63,0.00039516,-0.00079363,0.00125457,-0.00013579,0.00000192,-0.00000228,-0.00001
576,-0.00038057,-0.00028364,-0.00003290,0.05407508,0.01193817,-0.05118908,0.0225
5916,0.00868054,-0.00293035,-0.02323616,-0.00778506,0.00630081,-0.05757762,-0.01
518268,0.05365252,0.00368955,0.00251628,0.01302722,-0.00059878,0.00000759,0.0003
7720,-0.00174442,-0.00923485,0.00994568,0.00033519,0.00061909,-0.00003897,-0.104
97092,-0.00112147,0.04157780,0.00013182,-0.00004900,0.00001375,0.00247666,0.0001
7968,-0.00207891,0.00007313,-0.00008642,-0.00008175,0.00007586,0.00133460,0.0010
0125,0.01019174,-0.00047539,0.00436632,0.00053215,-0.00051315,0.00018127,0.00030
395,0.00008516,0.00008160,-0.00581232,-0.00035481,-0.00009290,0.00004783,-0.0006
3388,0.00057342,0.00078224,0.00047009,-0.00011294,-0.00023545,-0.00086686,-0.000
23330,0.58502201,0.01031943,0.01234524,-0.02834264,-0.00098652,-0.00033444,0.000
84893,-0.01225482,-0.01224226,0.02859664,-0.00007373,0.00043908,-0.00034187,-0.0
0710284,-0.10492418,0.02043702,-0.00000495,0.00004167,-0.00000913,0.00118661,0.0
0098701,0.00079133,0.00012598,0.00005225,-0.00014070,-0.00141362,0.00077573,0.00
016670,-0.00006713,-0.00415279,-0.00234520,0.00050149,-0.00063849,0.00030855,0.0
0103466,0.00020190,-0.00083785,-0.00007699,-0.00061860,-0.00104081,-0.00011022,-
0.00018023,0.00037420,0.00056001,-0.00033973,0.00022200,0.00038482,-0.00089167,-
0.00106169,-0.00851386,0.63292466,0.01643717,-0.00694642,-0.03191538,0.00003016,
-0.00018080,0.00038405,0.00616784,0.01556203,-0.00630752,0.00012898,-0.00001138,
0.00002435,0.03904668,0.00763309,-0.19029371,-0.00002686,-0.00000568,-0.00004742
,0.00026932,-0.00182257,-0.00150624,0.00006513,0.00009007,0.00000089,0.00067286,
-0.00239198,0.00126390,0.00335772,-0.00067675,0.00244155,0.00034222,-0.00006695,
0.00000748,-0.00041172,0.00013909,-0.00111856,-0.00105501,0.00280361,-0.00291149
,0.00040976,0.00121053,-0.00038830,-0.00031571,0.00031719,0.00095471,0.00021310,
-0.00006310,0.00081714,0.03209620,0.02284726,0.49345645,-0.00037773,-0.00256770,
0.00046357,0.00038590,0.00012292,-0.00034452,0.00108941,0.00031234,-0.00140517,0
.00001832,-0.00006797,0.00008075,-0.00873227,0.00771534,0.00521639,0.00001039,-0
.00001724,0.00001361,-0.00019568,0.00003151,-0.00018033,-0.00005169,-0.00001570,
0.00003915,0.00057184,-0.00061305,0.00062891,0.00032034,0.00033936,0.00027742,-0
.00008464,0.00007565,-0.00004431,-0.00046104,-0.00004218,0.00033261,-0.00002446,
-0.00029483,-0.00050077,0.00004554,0.00008371,-0.00009471,-0.00011403,0.00008137
,0.00001368,0.00017659,0.00005071,-0.00002057,-0.22023421,0.13479724,0.03127737,
0.23182441,-0.00011012,-0.00033748,0.00223392,-0.00005560,-0.00000382,0.00004112
,-0.00178207,0.00048294,0.00055238,-0.00006081,-0.00005002,-0.00003247,-0.006471
41,0.00321280,-0.00043751,-0.00001275,0.00000388,-0.00000616,-0.00046032,0.00005
675,0.00042314,-0.00000228,0.00000100,0.00000834,0.00017019,0.00011567,0.0003605
2,0.00076360,0.00040385,0.00021844,-0.00005888,0.00005840,0.00000625,0.00005654,
0.00001256,0.00002420,-0.00083193,-0.00056330,-0.00094560,0.00008198,0.00009506,
-0.00017269,-0.00023320,0.00040642,0.00002159,0.00049626,-0.00012775,-0.00001284
,0.13971788,-0.15691314,-0.02388865,-0.14607239,0.16058173,0.00152686,0.00399736
,-0.00336187,0.00017691,0.00011517,-0.00027515,-0.00059436,-0.00233023,0.0014495
2,-0.00009421,0.00004005,0.00002020,0.03239210,-0.02132505,-0.01475766,0.0000036
4,0.00000152,0.00001927,-0.00024719,0.00020026,0.00004936,-0.00004599,-0.0000095
4,0.00001537,-0.00053912,0.00080317,-0.00041188,-0.00152852,-0.00099582,-0.00132
050,0.00007499,-0.00009994,0.00001703,-0.00033624,-0.00002357,0.00035559,0.00064
222,0.00011684,0.00061530,0.00000560,-0.00012095,0.00005291,0.00001623,-0.000260
29,0.00001236,-0.00004096,0.00003080,-0.00012629,0.02484383,-0.01914887,-0.04820
121,-0.03816037,0.02421743,0.06092534,0.00062283,-0.00164631,0.00013138,-0.00031
161,-0.00015161,0.00037087,0.00012501,-0.00024648,0.00239737,0.00002462,0.000085
62,-0.00008146,-0.00464013,-0.01034362,-0.00035905,-0.00001064,0.00001342,-0.000
01321,0.00064049,0.00044604,-0.00029065,0.00002565,0.00000400,-0.00004192,0.0004
3524,-0.00024477,0.00010594,0.00000357,0.00000617,-0.00012107,0.00011103,-0.0000
5303,0.00002297,0.00039731,0.00023498,-0.00028571,0.00016848,0.00032798,-0.00019
809,-0.00003973,0.00012361,-0.00028320,-0.00080884,0.00081433,0.00079906,0.00032
204,0.00000926,0.00005074,-0.07228305,-0.07082917,0.00928866,0.01001914,0.022199
51,-0.00285563,0.06862386,0.00028640,-0.00120688,-0.00038258,-0.00019561,-0.0000
8604,0.00022999,-0.00183792,0.00030181,0.00368701,-0.00008145,0.00006599,-0.0001
0090,0.00004127,-0.00265486,0.00071895,-0.00004139,0.00003095,-0.00001155,0.0004
7693,0.00018557,-0.00029008,0.00000186,0.00003032,-0.00003233,-0.00027494,0.0003
9401,-0.00075017,-0.00001281,-0.00003207,-0.00004181,0.00027075,-0.00012681,0.00
008696,0.00013545,0.00008909,-0.00016708,0.00184493,-0.00095619,-0.00265069,0.00
022088,0.00012924,-0.00053121,0.00008238,-0.00027902,-0.00064912,0.00027587,-0.0
0030607,-0.00098765,-0.07461627,-0.30475015,0.02650547,-0.00746265,-0.01233266,0
.00108802,0.07982750,0.32500775,-0.00037021,0.00221390,0.00133853,0.00027149,0.0
0009138,-0.00028377,0.00260651,0.00063302,-0.00541502,0.00007947,-0.00012257,0.0
0014057,0.00837553,0.03239320,-0.00258663,0.00001802,-0.00001257,0.00000866,0.00
005805,-0.00016088,0.00071377,-0.00002149,-0.00002425,0.00003690,-0.00028570,-0.
00026120,0.00048477,-0.00024607,0.00024621,0.00001112,-0.00031377,0.00020560,-0.
00011075,-0.00026583,-0.00004005,0.00019591,0.00106278,-0.00081281,-0.00056378,-
0.00028115,-0.00005245,0.00002222,0.00030467,-0.00041992,-0.00029028,-0.00000653
,-0.00146058,-0.00107352,0.00701980,0.01807014,-0.05520090,-0.00214782,-0.003849
40,0.00036287,-0.01263031,-0.02703671,0.05815130,-0.00107158,-0.00025152,0.00186
059,-0.00098428,-0.00036053,0.00077232,0.00014596,0.00078647,0.00035882,0.000111
02,0.00018554,-0.00027331,0.01297434,0.00269193,0.01401280,0.00002274,0.00004087
,0.00000656,0.00023644,-0.00008617,-0.00002225,0.00009231,-0.00001077,-0.0001171
9,-0.00013587,-0.00011925,0.00008832,-0.00134348,0.00035734,-0.00047423,0.000114
61,-0.00006800,0.00001456,-0.00062596,0.00047250,-0.00020069,0.00091799,-0.00033
669,0.00026063,-0.00000559,0.00001883,-0.00002870,-0.00012515,-0.00011536,-0.000
22693,0.00001775,0.00025608,-0.00012224,-0.19778301,-0.04747639,-0.13799386,-0.0
1418614,-0.00733420,-0.01523978,-0.00342528,0.00105885,-0.00322744,0.20505318,-0
.00028021,-0.00069477,-0.00004529,0.00073732,0.00039022,-0.00074949,0.00055091,-
0.00008382,0.00022901,-0.00010572,-0.00012762,0.00022054,0.00471021,0.00108570,0
.00349569,0.00000230,-0.00003614,0.00001705,-0.00046914,-0.00023868,0.00024827,-
0.00010937,-0.00001662,0.00009243,0.00000064,0.00009564,0.00032160,-0.00029458,0
.00013147,-0.00021196,-0.00005029,0.00007741,-0.00004297,-0.00030500,-0.00044348
,0.00056514,0.00097166,0.00035394,-0.00011744,0.00017638,0.00001007,-0.00002715,
-0.00013344,-0.00026945,-0.00018016,-0.00019382,0.00057869,0.00040453,-0.0484644
2,-0.06178185,-0.04105408,0.01354354,0.00489712,0.01370363,-0.02057743,-0.003503
99,-0.01960009,0.05029046,0.05957617,0.00017880,0.00482457,-0.00138807,0.0009098
6,0.00042533,-0.00101899,-0.00022988,-0.00210222,0.00189729,-0.00003354,0.000002
41,0.00032481,-0.01840450,-0.00805859,-0.03364361,0.00000665,-0.00001595,0.00003
713,0.00079403,0.00073573,-0.00011117,-0.00017970,-0.00004613,0.00010569,0.00009
141,0.00002828,0.00037059,0.00204774,-0.00073719,0.00048368,0.00002492,-0.000078
53,-0.00005920,-0.00090604,-0.00002006,0.00090870,-0.00098971,-0.00025787,0.0001
9964,0.00000148,-0.00010754,0.00004813,0.00004570,-0.00020437,-0.00019297,0.0000
0891,-0.00027805,-0.00000052,-0.13246656,-0.03939402,-0.16145979,0.00455511,0.00
123797,0.00455944,0.00399330,0.00131548,0.00405802,0.14055200,0.04273074,0.18488
120\\0.00000969,-0.00001065,-0.00002204,0.00000062,0.00000317,0.00000679,-0.0000
0085,0.00000408,-0.00000121,-0.00000246,0.00000482,-0.00001010,-0.00000865,0.000
02222,0.00002420,0.00000687,0.00000757,0.00001070,-0.00001507,-0.00001300,0.0000
1008,0.00000208,0.00000202,0.00000811,0.00000107,0.00000338,-0.00000016,0.000002
25,0.00000401,-0.00000220,0.00002241,-0.00001340,0.00002556,-0.00001204,-0.00000
004,0.00000114,0.00000142,-0.00000263,-0.00000161,0.00000465,0.00000390,-0.00000
859,-0.00000009,0.00000017,-0.00000826,0.00000427,0.00000120,-0.00001359,-0.0000
0333,-0.00000761,-0.00000626,-0.00000437,-0.00000265,-0.00000399,-0.00000306,0.0
0000019,-0.00000855,-0.00000541,-0.00000675,0.\\\@
