1\1\GINC-NODE-007\Freq\RwB97XD\def2SVP\C12H17N1O2\JP2658\30-Dec-2023\0\\# wb97xd
 def2svp scrf=(iefpcm,solvent=toluene) freq=noraman\\TS-325_opt_sqm_reopt.out\\0
,1\C,-0.90912,-0.70553,0.18675\C,-2.28931,-0.46052,0.15144\O,-2.85664,0.64001,0.
02844\C,0.04988,0.41225,0.27098\C,-0.80197,2.63711,-1.05717\H,-0.19078,3.33552,-
0.476\H,-0.91449,3.01793,-2.08086\H,-1.78387,2.48859,-0.59555\N,-0.1413,1.31934,
-1.10937\H,-0.70386,0.67515,-1.67437\H,0.77298,1.39691,-1.56214\C,1.49455,-0.073
79,0.16145\C,1.83911,-0.97872,-0.85528\C,3.15038,-1.41929,-1.01262\C,4.14917,-0.
96795,-0.14947\C,3.82137,-0.0728,0.86551\C,2.50777,0.37432,1.01604\H,1.0586,-1.3
5363,-1.52188\H,3.39175,-2.12628,-1.80944\H,5.17774,-1.3158,-0.26667\H,4.59286,0
.28403,1.55142\H,2.28156,1.07316,1.82159\C,-0.18491,1.36885,1.43873\H,-1.24386,1
.64961,1.47135\H,0.04553,0.82445,2.36394\H,0.43664,2.27732,1.41011\H,-0.54339,-1
.72913,0.23806\O,-3.05098,-1.59948,0.22236\C,-4.43981,-1.42624,0.09871\H,-4.8875
6,-2.4262,0.17327\H,-4.8474,-0.78277,0.89452\H,-4.71493,-0.97465,-0.86857\\Versi
on=ES64L-G16RevC.01\State=1-A\HF=-671.970648\RMSD=7.288e-09\RMSF=6.892e-06\ZeroP
oint=0.2756515\Thermal=0.2902532\ETot=-671.6803948\HTot=-671.6794506\GTot=-671.7
363517\Dipole=2.0596768,1.5841678,-1.327071\DipoleDeriv=-1.9554834,-0.298961,0.0
995705,-0.0661036,-0.4198121,0.0449342,0.0193691,-0.0521243,-0.7639114,3.1392658
,0.287686,-0.0926194,0.2734386,1.6590612,-0.0710403,-0.0774321,-0.1721383,0.3154
657,-1.4382386,0.2031582,-0.0160675,0.5924735,-1.269347,0.0468878,-0.069316,0.11
86855,-0.4667219,0.9282243,0.0849661,-0.0059861,0.6367396,1.0549238,-0.2971382,-
0.2528134,-0.5476432,0.8896754,0.0268171,-0.1871323,0.0932447,-0.1702943,0.36799
68,-0.0414588,0.0592268,0.1712868,0.0695366,0.0191596,-0.0599164,-0.0646491,-0.0
003295,0.0067769,-0.0147719,-0.0523178,-0.0749342,0.0663103,0.1097518,0.0558993,
-0.0111082,0.0341518,-0.0278482,0.0426651,-0.0210723,0.0757386,-0.0591266,0.1152
243,0.08713,-0.0212971,0.0213135,0.1680749,-0.0247148,0.00887,-0.0606311,0.11069
8,-0.3742356,0.1411622,-0.0627565,-0.2711227,-0.8307336,0.3126234,0.2490251,0.41
80812,-0.5706461,0.2153367,0.0732328,-0.0014468,0.0872622,0.1967033,-0.0825837,-
0.0308529,-0.0351277,0.2531134,0.2404272,-0.0085874,0.0199243,-0.0690064,0.18060
22,-0.035567,0.0943596,-0.0329459,0.2059205,0.2205332,-0.0091152,0.0024738,-0.00
2289,-0.0963302,0.0261861,-0.0297061,0.0230866,-0.1333181,-0.1106884,0.0689249,0
.0842353,0.0543248,-0.1034606,0.033399,0.077791,0.0328612,-0.1044519,-0.0686248,
-0.0353866,-0.0162931,-0.0265588,-0.0119786,0.1268615,-0.0601984,0.1140605,0.016
0358,0.029444,-0.047255,-0.01164,-0.0374241,-0.0865826,0.0227715,0.0023598,0.029
6325,-0.0923627,0.0265976,0.0475365,0.0926172,0.0344556,-0.0876705,0.0641046,0.0
908574,0.0643156,-0.0081392,-0.1625962,-0.0367909,-0.043041,0.0272289,-0.0725636
,0.0649427,-0.0178256,0.0531481,-0.0165567,0.0603093,-0.0396519,-0.0938621,-0.06
39776,0.1016238,-0.0237161,-0.0938605,-0.0173412,0.0623808,0.0621971,0.0323598,0
.0199685,0.0442758,0.0359692,-0.1017232,0.0349186,-0.104576,0.0076998,-0.0812251
,0.061539,0.0139052,0.0569247,0.094212,-0.0249829,0.016719,-0.0256559,0.1015878,
-0.0211017,-0.0252842,-0.0780452,-0.0361967,0.0907929,-0.0564715,-0.088995,-0.05
63006,0.0309596,0.1217603,0.0230187,0.0309113,0.0182601,0.047531,-0.0815827,0.02
97534,-0.0822229,0.0272692,-0.1677989,0.1271026,0.01365,-0.040504,-0.0422266,-0.
0300973,0.033734,0.0025469,-0.1430513,0.0036622,0.0784582,0.0487609,0.0448835,0.
0748818,-0.0090174,0.0152999,0.0189944,0.1189607,0.0915619,-0.0154254,-0.0601719
,0.0263307,0.0196155,0.0653698,-0.0325264,0.0554148,-0.0251399,0.0059308,-0.1402
77,-0.0003263,-0.1737595,-0.1290508,-0.0444588,0.0051587,-0.0039599,0.0381531,0.
0144611,0.0274347,-0.0077525,0.0497049,-0.0700387,0.0082504,0.027912,0.039057,0.
1831124,-2.0149114,-0.5604433,0.0276892,-1.0782743,-1.1219488,0.0813876,0.026587
8,0.0512679,-0.3319068,1.2267709,0.2026387,0.0188563,-0.0297986,0.3313106,-0.004
9144,0.0629194,0.0097453,0.346602,-0.0561564,-0.0692552,0.0020777,-0.1460854,-0.
1304636,0.0143894,0.0046881,0.0161183,0.0727717,-0.1052327,-0.0275805,0.023487,0
.1213147,0.0223355,-0.0929117,0.0685646,-0.0719573,-0.0713201,-0.101142,-0.04118
53,-0.0043091,0.0886417,0.0476441,0.0823779,-0.1011978,0.0435172,-0.1296\Polar=2
14.9616579,-5.1130468,142.5287009,4.7335169,16.5122479,130.913673\Quadrupole=-4.
1887057,1.0975774,3.0911283,0.1680413,1.5968722,-0.7623499\PG=C01 [X(C12H17N1O2)
]\NImag=1\\0.66988861,-0.05605724,0.68320514,0.02326569,-0.01946580,0.08663441,-
0.31851165,0.05416772,-0.01597102,0.78313889,0.02864211,-0.11313344,0.00264288,-
0.15295200,0.75708068,-0.01641109,-0.00130574,-0.06779033,0.03906286,-0.05397415
,0.22573056,-0.03743253,0.05163257,-0.00444239,-0.22425188,0.20456705,-0.0239516
8,0.23962803,0.06017558,-0.01584037,0.00130915,0.18003508,-0.46285317,0.04554980
,-0.23285758,0.58416781,-0.00208301,0.00506914,0.02251047,-0.02359258,0.04111096
,-0.08806871,0.02995460,-0.05780531,0.04541088,-0.14834169,-0.07068325,-0.004741
11,-0.03845899,-0.02474873,-0.00009651,0.00954339,-0.00971449,0.00010114,0.52964
286,-0.03594732,-0.16958286,-0.00173585,-0.04538866,0.01931957,0.00544399,0.0140
7517,-0.02570575,-0.00061227,0.01528475,0.41058686,-0.03153987,-0.02809083,-0.06
471415,0.01923088,-0.00621083,-0.00719925,-0.00496923,0.01052548,-0.00392748,-0.
00953004,0.16660945,0.33685541,-0.00227754,-0.00127427,0.00291845,0.00215663,-0.
00099869,-0.00007807,-0.00075947,-0.00008025,0.00152946,-0.00159982,0.00547654,-
0.00756615,0.60613929,0.00176750,0.00012619,0.00063386,-0.00479513,0.00193413,0.
00080626,-0.00034420,-0.00688656,0.00131850,0.00225404,-0.01439080,0.01334680,0.
07185964,0.51634503,0.00450109,0.00319529,-0.00027750,-0.00372100,0.00217704,0.0
0078759,0.00200564,-0.00171647,0.00067423,-0.01119773,0.00788457,0.01525879,-0.0
0266014,0.00217458,0.62771477,0.00056478,-0.00012753,-0.00019112,-0.00125352,0.0
0131224,-0.00007171,-0.00001945,-0.00197429,0.00107328,0.00025669,-0.00082979,-0
.00050413,-0.14836176,-0.10776010,-0.09075596,0.14733171,-0.00037926,-0.00013114
,0.00118956,0.00065221,-0.00006676,-0.00000979,-0.00031730,0.00010607,0.00012687
,-0.00074381,0.00084596,-0.00203327,-0.09747427,-0.15810361,-0.09212479,0.104803
68,0.17697760,-0.00021474,-0.00015324,-0.00015401,0.00067025,-0.00045468,0.00004
972,-0.00000583,0.00083687,-0.00052681,0.00024882,0.00052258,-0.00019727,-0.0877
0857,-0.09851725,-0.13098515,0.09542776,0.10433444,0.13569716,0.00121352,0.00071
564,-0.00014180,-0.00158949,0.00111124,0.00020710,-0.00012344,-0.00196233,-0.000
22835,-0.00071915,-0.00107177,0.00347533,-0.05139197,0.00677108,-0.02052846,-0.0
0100639,0.00699299,-0.01567019,0.04873932,-0.00215542,-0.00132840,0.00026007,0.0
0223634,-0.00083710,-0.00023276,-0.00088457,0.00119727,-0.00032086,0.00215509,0.
00262044,-0.00761205,0.00736276,-0.07685289,0.08113061,-0.00075918,0.00890594,-0
.01865526,-0.01515699,0.08897377,-0.00013480,0.00011887,0.00025422,0.00035112,-0
.00071249,0.00002867,0.00027897,0.00094500,-0.00005860,0.00065064,-0.00129383,0.
00026057,-0.02546312,0.08865902,-0.30039644,0.00104248,0.00626679,-0.01146416,0.
02735118,-0.09409034,0.31242143,-0.00131031,-0.00004655,-0.00018074,0.00235190,-
0.00194333,0.00020258,-0.00444471,-0.00041536,0.00029146,0.00009567,0.00089753,0
.00004021,-0.28325367,-0.03241410,0.10751363,-0.00836069,0.00021920,0.00634422,0
.00860686,0.00061170,-0.00448085,0.30034531,-0.00271041,0.00006445,-0.00033127,0
.00516465,-0.00749988,0.00063395,-0.00349874,0.00432955,-0.00093374,0.00106958,0
.00336103,-0.00195756,-0.04774651,-0.05314873,0.02071602,-0.01455446,-0.00049598
,0.00969700,-0.00800312,-0.00076599,0.00200621,0.03013232,0.06038320,0.00022073,
-0.00031417,-0.00016285,-0.00067298,0.00114063,-0.00057511,0.00113787,-0.0002281
6,-0.00133447,-0.00033621,0.00024310,0.00043053,0.11041714,0.01419084,-0.1048294
9,-0.01806425,-0.00092847,0.00942052,0.02494985,0.00242523,-0.00838374,-0.117225
10,-0.01611265,0.10640224,0.00464438,-0.01521996,0.01209904,0.00221186,-0.002756
13,0.00142351,0.00251844,0.00136766,-0.00057071,-0.06554654,-0.00365371,0.005734
57,-0.12408402,0.04935229,-0.00088711,0.01139932,-0.01731444,0.00100444,-0.00452
562,0.00743213,0.00129315,-0.01549579,0.03750654,-0.00006202,0.72797860,-0.03020
019,-0.03836353,0.02600864,0.02669677,-0.00934944,-0.00153314,-0.00707423,0.0131
6720,0.00014473,0.00592101,-0.01496149,-0.05362566,0.04500549,-0.19028563,0.0009
9680,0.01622294,-0.02567063,-0.00002746,0.01091143,-0.02212515,-0.00364728,0.000
87796,-0.00291392,-0.00073839,0.08503886,0.55039633,0.02492999,0.02579207,0.0035
3622,-0.01675725,0.00571070,0.00274835,0.00380122,-0.00897536,-0.00076523,-0.004
21072,-0.05969834,-0.02087250,0.01048720,-0.02454456,-0.10013285,0.01277674,-0.0
1786333,0.00009191,-0.01833601,0.03498737,0.00658688,0.00724802,-0.01524537,0.00
042304,-0.04015050,0.15099229,0.44724516,-0.00244744,-0.00137219,0.00014455,0.00
163171,-0.00428990,0.00187223,-0.00088303,0.00283696,-0.00211420,0.00114844,0.00
373075,-0.00522646,0.01336705,0.01353474,0.01312719,-0.00164899,0.00448828,0.000
44566,0.00074313,-0.00040552,-0.00026749,0.00040769,0.00049296,0.00078565,-0.173
41650,-0.12825876,-0.10766353,0.17744218,0.00185475,-0.00091273,-0.00734889,-0.0
0740243,0.00309605,0.00039384,0.00106837,-0.00334123,0.00165217,0.00913441,0.012
34084,0.00747599,-0.01473592,-0.02094957,-0.01600971,0.00356491,-0.00327854,0.00
071640,-0.00039923,0.00023822,0.00057869,-0.00016059,0.00121513,-0.00023666,-0.1
2364952,-0.18859668,-0.12606882,0.12724517,0.20149471,-0.00173021,-0.00231655,0.
00457235,0.00454336,0.00202903,-0.00134255,-0.00123237,0.00028673,0.00063496,-0.
01338384,-0.00953323,-0.02210555,0.00009499,0.00229095,0.00091265,-0.00007108,0.
00041097,0.00053674,0.00032079,0.00086265,0.00045441,-0.00018842,-0.00054757,-0.
00003423,-0.11618385,-0.14096286,-0.16028395,0.11836067,0.13351113,0.16861703,0.
00066454,0.00089081,0.00021488,-0.00061417,0.00013622,0.00026047,0.00035005,-0.0
0021397,-0.00020094,0.00585567,-0.00320717,0.00040817,-0.00907890,-0.00072004,0.
00411878,0.00098050,-0.00049417,-0.00003688,0.00005505,-0.00009582,-0.00035497,0
.00057439,0.00221572,-0.00023915,-0.35389459,-0.03048630,0.13922461,-0.01514874,
0.00157721,0.01140041,0.36999093,-0.00012325,-0.00304106,0.00159735,0.00137099,-
0.00017896,-0.00015749,-0.00009018,0.00054372,-0.00000775,-0.00843536,-0.0000937
1,0.00168616,0.03303542,0.00250380,-0.01520260,-0.00035890,0.00071963,-0.0006608
7,-0.00005577,0.00077114,0.00046705,0.00226777,-0.00633050,0.00025909,-0.0365416
0,-0.05714695,0.00962096,-0.01917952,0.00089005,0.01310834,0.02792056,0.06315324
,0.00066320,0.00272401,-0.00112835,-0.00161347,0.00114411,-0.00001978,-0.0000680
0,-0.00105141,0.00057244,0.01706934,-0.00028109,-0.00647705,-0.00076296,0.001288
10,-0.00012793,0.00043542,-0.00003631,-0.00007823,-0.00086395,0.00024236,0.00036
046,0.00007118,-0.00011784,0.00058834,0.15678488,0.00805015,-0.12456978,-0.02066
540,0.00051317,0.01116306,-0.15125336,-0.01354060,0.12128432,-0.02432951,0.00006
435,0.00119704,-0.00606927,-0.00052093,0.00226308,0.00200967,-0.00194555,-0.0000
9780,-0.18226194,0.02953937,0.00442126,-0.00069408,-0.00014210,-0.00041209,0.000
14931,-0.00009303,-0.00011700,-0.00009466,0.00010494,-0.00006248,0.00002942,0.00
011226,-0.00009883,-0.00971159,0.01331917,-0.01044809,-0.00017060,-0.00063309,-0
.00009708,0.00093316,-0.00004462,0.00072868,0.63070399,-0.02004469,0.01128110,-0
.00044168,-0.00142157,-0.00401533,-0.00139720,0.00003076,0.00040793,0.00035186,0
.03034533,-0.09486294,-0.01518435,0.00064048,0.00018889,0.00163000,-0.00016755,0
.00007357,-0.00005057,0.00014671,-0.00037858,-0.00000889,-0.00007556,-0.00008083
,-0.00005560,0.01837130,-0.01057391,0.00733474,0.00056569,-0.00039882,0.00089810
,0.00096049,0.00024961,0.00007451,-0.05517710,0.39828384,-0.00540959,0.00058420,
0.00234733,0.00169951,-0.00104697,0.00197960,-0.00074857,0.00069194,0.00005750,0
.00761483,-0.01513055,-0.08512586,-0.00078861,-0.00085845,-0.00326239,0.00018751
,0.00002918,0.00005224,-0.00041535,0.00091780,0.00015663,-0.00006517,0.00013894,
-0.00015287,-0.02452233,0.01524553,-0.00626443,-0.00043293,0.00073312,-0.0009448
4,-0.00214743,0.00180670,0.00129777,0.08067895,0.23270863,0.50245244,-0.00404013
,0.00131893,0.00199133,0.00207182,0.00040652,0.00033009,-0.00086761,0.00051734,-
0.00022004,-0.00804159,0.02161875,0.02393448,-0.00028739,-0.00037317,-0.00022885
,-0.00000533,-0.00007219,0.00003367,-0.00005570,0.00010232,-0.00002088,-0.000015
50,0.00004070,0.00008401,0.00019185,0.00141795,0.00148556,-0.00033465,0.00002643
,0.00016296,-0.00015918,-0.00011602,-0.00004726,-0.13750940,0.01469402,-0.000587
99,0.72800240,-0.00057984,-0.00069179,-0.00186483,-0.00088213,0.00024605,0.00027
897,0.00004355,-0.00026330,-0.00000915,0.00949182,-0.00575220,-0.00560007,0.0001
3079,0.00053912,-0.00037392,0.00003565,-0.00002862,0.00000929,0.00000360,0.00007
283,0.00002152,0.00006976,-0.00018406,0.00001829,0.00001387,-0.00084067,-0.00100
764,-0.00038654,0.00009112,0.00000609,0.00091987,0.00005407,0.00050210,0.0572902
3,-0.17796782,-0.11445472,-0.06400718,0.37617484,0.00259192,-0.00119866,-0.00224
786,-0.00270060,0.00038442,0.00013096,0.00084557,-0.00129294,0.00021038,0.007264
83,-0.00039211,0.00130344,-0.00034647,-0.00016986,0.00002898,0.00007297,-0.00006
815,-0.00000907,0.00002594,0.00003448,-0.00001832,-0.00000122,0.00017993,-0.0000
1969,-0.00126377,0.00100816,0.00001338,-0.00036660,0.00021434,-0.00010741,0.0006
5397,-0.00006593,0.00051579,0.05231871,-0.12637943,-0.21264060,0.08846597,0.2617
1259,0.49261728,0.00056888,0.00090727,-0.00001660,0.00008265,-0.00029179,0.00036
412,0.00011694,-0.00004212,-0.00016782,0.00304412,0.00017523,0.00091603,0.000373
45,0.00034247,-0.00009420,0.00000500,-0.00003530,0.00002164,0.00001741,-0.000001
74,-0.00001392,0.00006363,-0.00018702,0.00002553,0.00003463,-0.00164878,-0.00088
238,-0.00014981,0.00027025,-0.00015467,-0.00025434,0.00114583,-0.00029028,0.0096
7484,0.05716675,0.07036001,-0.33758404,0.05515068,-0.00973110,0.68379031,-0.0004
2045,-0.00012916,0.00087380,0.00040828,0.00008051,0.00034058,-0.00025366,0.00029
464,-0.00004689,0.00051983,0.00058281,-0.00556879,0.00000649,-0.00006170,-0.0002
2497,0.00001094,0.00002452,-0.00000431,-0.00004943,0.00008233,0.00001219,-0.0000
1800,-0.00000191,-0.00001503,-0.00096944,0.00081338,-0.00084199,0.00001625,0.000
01750,0.00000127,-0.00014366,0.00003204,0.00013163,0.02204315,-0.00502609,-0.009
72189,0.10209910,-0.11795605,-0.03181476,-0.08776162,0.40249422,-0.00216293,0.00
062791,0.00105319,0.00163459,-0.00050342,-0.00012873,-0.00039861,0.00072142,-0.0
0004775,-0.00054217,-0.00578348,-0.00135087,0.00004845,-0.00010450,0.00014700,0.
00001284,0.00004327,-0.00001585,0.00002026,-0.00002604,-0.00000282,-0.00003282,-
0.00001459,-0.00000477,0.00003437,-0.00017070,0.00015416,0.00019009,-0.00015882,
0.00000658,0.00008927,-0.00018507,-0.00003660,0.02804599,0.00164798,0.01827340,0
.04553118,-0.04610282,-0.11078979,0.05241963,0.29233779,0.52123935,-0.00145852,0
.00018088,0.00025419,0.00110454,-0.00011268,-0.00024389,-0.00044089,0.00039865,-
0.00000889,0.00083496,-0.00086841,-0.00047953,-0.00006870,-0.00025345,-0.0001940
1,0.00000652,0.00001195,0.00002247,-0.00006018,0.00008557,0.00000084,-0.00002402
,0.00003703,0.00001415,-0.00072078,0.00071293,0.00010988,0.00002808,-0.00004050,
0.00006203,-0.00009956,-0.00034813,0.00047950,-0.00529980,-0.01358461,-0.0164013
8,-0.04892129,0.00720095,-0.00841293,-0.24707075,-0.06610167,-0.13564762,0.73971
962,0.00014111,-0.00042080,0.00001394,-0.00053633,0.00014888,-0.00005049,0.00011
585,-0.00012869,0.00008984,-0.00065446,-0.00074126,-0.00058735,-0.00016427,-0.00
010682,0.00004333,-0.00000746,0.00002157,-0.00001217,-0.00001241,0.00000417,0.00
000399,-0.00002424,0.00009189,-0.00001444,-0.00015637,0.00094396,0.00005665,0.00
010514,-0.00016808,0.00005512,0.00006659,-0.00046917,0.00013379,-0.01326543,-0.0
3045818,-0.03062939,-0.02665622,0.03619718,0.02438646,-0.02040668,-0.11960598,-0
.06809033,-0.10196289,0.38118332,-0.00039572,-0.00065709,0.00014137,-0.00012688,
0.00026139,-0.00001268,-0.00007412,0.00003497,0.00007269,-0.00025710,-0.00025397
,-0.00151940,-0.00024015,-0.00012280,-0.00010873,-0.00000215,0.00001687,-0.00001
572,-0.00003428,0.00004495,0.00001248,-0.00003171,0.00009227,-0.00001833,-0.0004
3681,0.00149229,0.00013772,0.00008751,-0.00021621,0.00009215,0.00000120,-0.00053
661,0.00018200,-0.01588529,-0.03181553,-0.05141951,-0.05075604,0.03490580,0.0370
1556,-0.07955234,-0.08245197,-0.19486952,0.05479280,0.26308479,0.48804348,-0.000
66969,-0.00044553,0.00041398,-0.00005863,0.00011224,0.00023222,-0.00009545,0.000
11405,0.00006792,0.00090159,-0.00169734,-0.00384835,-0.00020909,-0.00023887,-0.0
0025858,-0.00002059,0.00006507,-0.00000185,-0.00006397,0.00011780,0.00001453,-0.
00003592,0.00010129,-0.00000859,-0.00106425,0.00206003,-0.00024684,0.00018897,-0
.00026128,0.00007288,-0.00009363,-0.00068816,0.00015227,-0.04787725,-0.02755398,
-0.05021977,-0.03767824,0.02871545,0.02573929,0.06101588,-0.01294513,-0.00005441
,-0.14433099,0.02203918,0.00451267,0.70604363,0.00093400,0.00017652,0.00021510,0
.00008601,-0.00010435,0.00037886,0.00008292,0.00002826,-0.00004676,-0.00057225,0
.00355307,-0.00421347,0.00014775,0.00001386,-0.00011673,-0.00000531,0.00001663,0
.00000889,0.00000783,0.00002656,0.00001011,0.00001162,-0.00006147,0.00000578,-0.
00038843,-0.00072578,-0.00017073,-0.00003453,0.00021785,-0.00010969,-0.00014166,
0.00031665,-0.00022828,0.00694862,0.03542137,0.03463661,0.02835585,-0.02908396,-
0.01855473,-0.04730935,-0.00495687,-0.03297347,0.06744257,-0.19130129,-0.1313052
1,-0.06490912,0.38265424,-0.00077422,0.00113711,0.00024385,0.00013072,-0.0005482
4,0.00014509,0.00001623,0.00014865,-0.00001556,-0.00433364,-0.00469655,-0.000108
63,0.00018852,0.00011906,0.00024930,-0.00000171,0.00001394,-0.00002036,0.0000454
0,-0.00008091,0.00000028,0.00000128,-0.00006811,0.00000153,0.00132340,-0.0014411
6,0.00057805,0.00004111,-0.00001439,0.00007710,0.00015458,0.00029710,-0.00031256
,-0.00807866,0.02523758,0.03579024,0.02578278,-0.01768085,-0.02226575,-0.0424522
3,-0.02240016,-0.03095418,0.06084324,-0.14587049,-0.23241354,0.09203197,0.276513
62,0.51916840,-0.00234313,0.00363990,-0.00005652,0.00108597,-0.00116364,0.000124
86,-0.00042042,0.00017354,-0.00016733,-0.02376474,-0.00669011,-0.01514388,0.0004
9320,0.00011508,-0.00021405,-0.00004937,-0.00002446,0.00004978,0.00002114,0.0000
2808,0.00000325,0.00006629,-0.00023445,0.00006172,0.00034684,-0.00313996,0.00133
905,-0.00003859,0.00050897,-0.00006733,-0.00023234,0.00098269,-0.00089451,-0.234
70244,-0.01675470,-0.07406245,0.05818493,-0.04493313,-0.04177394,-0.07331007,-0.
00080638,-0.02133215,0.01130843,0.05714613,0.07163023,-0.32909496,0.05343451,-0.
01320405,0.67962606,0.00124695,-0.00152819,-0.00022798,-0.00037442,0.00056047,-0
.00020972,0.00017382,-0.00003713,-0.00002214,0.00495661,0.00981834,0.00724196,0.
00001738,0.00031824,0.00047686,-0.00011555,-0.00001749,0.00000667,0.00007178,-0.
00024634,-0.00000005,0.00001499,-0.00002590,0.00000665,0.00215032,-0.00202048,0.
00107391,0.00002217,-0.00005267,-0.00013494,-0.00007585,-0.00003769,-0.00074672,
-0.05943003,-0.11867295,-0.07819316,-0.01247590,-0.00514247,-0.02215422,-0.00067
311,-0.00504062,0.00267781,0.02271949,-0.00483473,-0.01068364,0.09986736,-0.1185
3506,-0.03014181,-0.09354277,0.40124577,0.00278779,0.00011272,0.00016482,-0.0003
0485,0.00021202,-0.00033328,0.00031560,-0.00038082,-0.00007893,-0.00132045,0.003
44523,0.00845271,0.00007440,0.00023527,0.00038274,0.00000077,-0.00007244,0.00002
960,0.00006214,-0.00016635,-0.00001968,0.00003341,-0.00003999,-0.00001289,0.0014
4947,-0.00106834,-0.00005835,-0.00005867,0.00003424,-0.00011922,-0.00042527,0.00
035752,-0.00037810,-0.12646839,-0.06564877,-0.18868979,-0.00175474,-0.03299870,-
0.03044566,-0.02074728,0.00285140,-0.01058810,0.02870029,-0.00034440,0.01801460,
0.04438245,-0.04412210,-0.11054207,0.04865985,0.28940784,0.51991407,-0.00056386,
-0.00011012,0.00013549,-0.00101906,0.00008867,-0.00025805,0.00042008,-0.00040114
,-0.00002858,-0.00007372,0.00046136,0.00040548,-0.00007035,-0.00006982,0.0001252
1,0.00000355,-0.00000756,-0.00000923,0.00002752,-0.00003439,-0.00000012,-0.00000
042,0.00007843,-0.00000327,-0.00024723,0.00023697,0.00007842,-0.00026474,0.00056
699,0.00006731,-0.00004341,-0.00021339,0.00003188,0.00861147,0.00232273,0.005161
43,-0.19991609,-0.06640804,-0.12839886,-0.01375624,-0.01112809,-0.01837720,-0.00
372852,0.00316774,0.00098748,-0.00014187,0.00052562,0.00080077,0.00064160,0.0017
9758,0.00102385,0.20994054,-0.00146815,0.00043679,0.00120779,0.00168728,-0.00020
343,0.00008641,-0.00048745,0.00058355,-0.00005307,-0.00217065,-0.00128258,0.0003
5956,0.00003952,-0.00027195,0.00026967,-0.00001325,0.00006762,-0.00000950,0.0000
2410,-0.00003723,-0.00002061,-0.00004532,0.00004497,-0.00000524,0.00051990,-0.00
038539,0.00079811,0.00086210,-0.00085165,-0.00002790,-0.00009331,-0.00082254,-0.
00022465,-0.01423654,-0.00192436,-0.01119413,-0.06748158,-0.08234350,-0.07027577
,0.00866794,0.00760545,0.00640323,0.00330334,0.00402338,-0.00333131,0.00051682,-
0.00094998,0.00021841,0.00241636,0.00170363,-0.00552795,0.07003400,0.07791163,-0
.00045995,-0.00031790,0.00097957,0.00158755,0.00003622,0.00062734,-0.00068674,0.
00082086,-0.00021306,-0.00060461,0.00113160,-0.00093876,0.00012005,-0.00008408,-
0.00004696,-0.00001472,0.00003953,0.00000741,-0.00002651,0.00005376,-0.00000886,
-0.00001823,-0.00004267,0.00002263,-0.00016606,0.00023495,-0.00066267,0.00019834
,-0.00002247,0.00011311,-0.00011226,0.00007851,0.00001231,-0.01755235,-0.0063344
3,-0.00776015,-0.12673982,-0.06867269,-0.15824079,0.00474474,0.00006613,0.006216
76,0.00019851,-0.00340702,0.00379487,0.00087736,0.00037151,-0.00023931,0.0014988
2,-0.00589486,-0.00006281,0.13710738,0.07867626,0.15978150,-0.00007783,0.0000115
1,-0.00007142,0.00019212,0.00002333,0.00001541,-0.00008008,0.00001508,-0.0000271
4,0.00036502,0.00090676,0.00109504,0.00001513,-0.00003378,-0.00002294,-0.0000023
3,-0.00000208,0.00000601,-0.00000457,0.00001857,-0.00000481,0.00000463,-0.000001
77,0.00000991,0.00000236,-0.00008002,0.00005974,0.00000593,0.00001813,0.00003063
,0.00003336,-0.00004436,0.00005337,-0.00471640,0.00230806,-0.00092782,-0.0012202
7,0.01927484,0.02196030,-0.07266922,0.04352733,0.04368403,0.00936841,-0.01497217
,-0.01694006,-0.00257174,-0.00047903,-0.00358709,-0.00114047,-0.00025843,-0.0003
9836,0.00085900,-0.00090543,0.00044473,0.07123712,0.00009068,-0.00011785,0.00003
971,-0.00020919,0.00003686,0.00002614,0.00009380,-0.00007101,0.00001252,-0.00027
319,0.00003526,-0.00049348,-0.00001273,0.00004046,0.00002322,0.00000142,0.000000
11,-0.00000834,0.00001125,-0.00001729,0.00000456,0.00000043,0.00000298,-0.000007
28,0.00006766,-0.00007888,0.00009894,-0.00000606,0.00000526,-0.00002559,0.000040
97,0.00000631,-0.00007544,0.00254035,0.00481476,-0.00257985,-0.00049288,-0.00167
644,-0.00740675,0.04371988,-0.16826565,-0.14500476,0.00473681,-0.00142454,-0.005
64608,-0.00087136,0.00434034,-0.00375863,-0.00023529,-0.00016664,0.00075142,-0.0
0060214,-0.00232088,0.00258164,-0.04812973,0.16792694,0.00024410,0.00003642,-0.0
0003148,-0.00022759,-0.00001419,-0.00001434,0.00008206,-0.00004412,0.00001516,-0
.00036812,-0.00017535,-0.00000328,-0.00000203,0.00003203,0.00001864,-0.00000222,
0.00000063,-0.00000319,0.00000279,-0.00001130,0.00000313,-0.00000096,-0.00000279
,-0.00000228,0.00006679,0.00000717,-0.00006605,-0.00001241,-0.00000703,-0.000006
65,-0.00005118,0.00007038,-0.00004456,-0.00038746,-0.00296179,0.00391719,-0.0020
5458,-0.00135076,0.00209468,0.04387634,-0.14466904,-0.20473157,0.00723113,-0.011
85105,-0.00796772,-0.00412026,-0.00363386,0.00146297,-0.00035752,0.00075775,0.00
001887,0.00049725,0.00240987,-0.00142139,-0.04575784,0.15898005,0.20878898,-0.00
031719,0.00005774,0.00012036,0.00037407,-0.00002736,0.00000855,-0.00014418,0.000
12206,-0.00002433,0.00004325,-0.00011165,0.00013779,0.00001291,-0.00004874,0.000
00329,0.00000051,0.00000276,0.00000523,-0.00000332,0.00000773,-0.00000642,-0.000
00196,0.00000029,0.00000455,-0.00001053,0.00001334,0.00002125,0.00003438,-0.0000
2298,0.00001688,0.00001341,-0.00007282,0.00003237,0.00058882,-0.00051057,-0.0002
9003,-0.00104606,-0.00110738,-0.00394271,-0.01390972,0.00904662,0.00563519,-0.31
372638,0.08896638,0.02668469,-0.00184006,-0.00041222,-0.00244395,0.00171159,0.00
158273,0.00021409,-0.00071620,0.00041742,0.00020521,0.00063751,-0.00069599,0.000
61997,0.32828475,-0.00016354,0.00004467,0.00007096,0.00011684,-0.00004778,-0.000
06609,-0.00001222,0.00005489,0.00001083,-0.00026770,-0.00045623,0.00039064,-0.00
001264,0.00001038,0.00004892,0.00000204,0.00000328,-0.00000862,0.00000952,-0.000
01770,0.00000271,-0.00000469,0.00000024,-0.00000265,0.00015963,-0.00007003,0.000
14052,0.00001347,-0.00003792,0.00001051,-0.00000464,-0.00000426,-0.00002995,-0.0
0048602,-0.00074955,-0.00021443,-0.00077547,0.00382091,-0.00445392,-0.01059681,0
.00723645,0.00058145,0.08901769,-0.07706057,-0.01921219,0.01911831,-0.00094499,-
0.00052552,0.00126856,0.00220796,-0.00625892,-0.00045307,0.00019022,0.00001550,-
0.00040337,-0.00215961,0.00239219,-0.09645111,0.07036881,0.00010496,-0.00003661,
0.00009989,-0.00004568,0.00001783,0.00007654,0.00000802,0.00000998,-0.00000452,0
.00019898,0.00038036,-0.00031950,0.00000459,-0.00001304,-0.00002896,-0.00000228,
0.00000743,0.00000123,-0.00000708,0.00001296,0.00000147,-0.00000225,0.00000274,-
0.00000074,-0.00010321,0.00009471,-0.00010028,0.00001113,0.00000103,-0.00000402,
-0.00000494,-0.00002817,0.00000541,-0.00032953,-0.00026663,-0.00102802,-0.003333
23,-0.00453926,0.00059539,-0.01866638,0.00656677,0.00663398,0.02657481,-0.019127
12,-0.05548554,0.02197503,-0.00663158,0.00274714,-0.00034926,-0.00609544,-0.0002
1612,-0.00081513,0.00033863,0.00013424,0.00097779,0.00227848,-0.00107794,-0.0274
9879,0.02461231,0.04903198,-0.00046770,0.00025120,0.00002017,0.00034572,-0.00011
135,0.00000790,-0.00015200,0.00011223,-0.00000659,-0.00003945,-0.00081963,-0.000
82797,0.00001662,-0.00008501,-0.00008076,0.00000159,0.00000478,0.00000900,-0.000
01548,0.00003704,-0.00000302,-0.00000092,-0.00000140,0.00000739,-0.00020998,0.00
011344,0.00000042,0.00001391,0.00001011,0.00001975,0.00000611,-0.00003453,0.0000
8728,-0.00375945,0.00361670,0.00071377,-0.00021128,0.00052453,0.00087445,0.00104
572,0.00214763,0.00070333,0.00892253,0.00431997,0.00675113,-0.20152897,-0.063471
41,-0.12950031,-0.01408696,-0.01092778,-0.01931222,-0.00003684,-0.00020288,0.000
04874,0.00028832,0.00019774,0.00030060,0.00039750,-0.00093930,0.00030367,0.20894
279,0.00013928,-0.00000578,0.00002620,0.00004874,0.00002166,-0.00005591,-0.00000
533,-0.00000926,0.00000955,0.00022993,0.00018188,0.00028981,-0.00000936,0.000007
12,0.00000546,0.00000515,-0.00000496,-0.00000261,0.00000133,-0.00000120,-0.00000
055,0.00000099,0.00000331,-0.00000500,0.00002897,0.00009050,-0.00003735,-0.00000
040,-0.00001357,0.00000258,-0.00002587,0.00002858,0.00003463,0.00297502,0.003808
80,-0.00323058,0.00044322,-0.00087868,0.00025804,0.00256717,0.00202624,-0.005859
79,-0.01528838,-0.00104892,-0.01164627,-0.06344522,-0.07843242,-0.06824814,0.008
55816,0.00717001,0.00624310,-0.00016061,-0.00055491,0.00051108,-0.00069351,-0.00
020655,-0.00054654,-0.00065437,-0.00212420,0.00259349,0.06618850,0.07224987,-0.0
0016728,-0.00001749,-0.00000408,0.00012420,-0.00000863,0.00001681,-0.00005568,0.
00005755,-0.00001656,0.00031385,0.00006225,0.00018563,0.00001395,-0.00002566,0.0
0000044,-0.00000347,0.00000361,0.00000780,-0.00000249,0.00000119,-0.00000298,-0.
00000081,-0.00000181,0.00000606,-0.00003201,-0.00008060,0.00001977,0.00000882,0.
00001297,-0.00000718,0.00002781,-0.00006257,-0.00000486,0.00057523,-0.00303001,0
.00355245,0.00090911,0.00029277,-0.00033302,0.00123090,-0.00595899,0.00030386,-0
.01765081,-0.00548664,-0.00790786,-0.12967486,-0.06839845,-0.16540021,0.00485569
,0.00020630,0.00594702,0.00002796,0.00048876,-0.00039782,-0.00080471,-0.00028081
,-0.00052425,0.00064526,0.00249617,-0.00102834,0.13930948,0.07730547,0.16681530,
0.00015325,0.00011064,0.00042064,-0.00026953,-0.00014786,-0.00006068,0.00013960,
0.00008093,0.00009621,0.00038595,-0.00063400,0.00015290,-0.00003790,0.00000900,0
.00003628,0.00003760,0.00005378,-0.00003158,0.00001589,0.00000049,0.00003206,-0.
00002890,0.00001273,-0.00003111,0.00016528,0.00001839,0.00030457,0.00001839,-0.0
0006152,0.00003707,0.00007211,-0.00007287,0.00000589,0.00984649,-0.01365021,-0.0
1510116,-0.00293753,-0.00044269,-0.00354787,-0.00109914,-0.00023745,-0.00032590,
-0.00468607,0.00243408,-0.00078478,-0.00132892,0.01921237,0.02221125,-0.06952166
,0.04067548,0.04154069,0.00032443,-0.00073956,-0.00090518,0.00003904,-0.00013191
,0.00017448,-0.00021154,0.00082938,0.00097804,0.00071464,-0.00089621,0.00045904,
0.07543697,-0.00052365,0.00017288,0.00003192,0.00014948,-0.00018250,-0.00009730,
-0.00000183,0.00011190,0.00005816,0.00011579,-0.00281862,0.00105226,0.00001726,0
.00001639,0.00009372,0.00000872,-0.00000351,-0.00002175,-0.00000450,-0.00002183,
-0.00000008,-0.00001396,0.00000997,-0.00001489,0.00034259,-0.00015984,0.00024371
,0.00003576,-0.00004949,0.00004933,0.00010408,-0.00005381,0.00002843,0.00260832,
-0.00173622,-0.00664343,-0.00074973,0.00422570,-0.00357881,-0.00014040,-0.000217
28,0.00085841,0.00279026,0.00453922,-0.00277459,-0.00034931,-0.00138043,-0.00759
711,0.04108364,-0.16660363,-0.14650437,0.00021005,-0.00009363,-0.00030287,-0.000
12492,-0.00063564,0.00045786,-0.00000417,-0.00019502,-0.00031408,-0.00079430,-0.
00229915,0.00244136,-0.04844350,0.16803497,0.00016988,0.00005273,0.00024864,0.00
011828,-0.00016604,0.00011503,0.00003409,0.00022484,0.00005507,0.00164168,0.0007
5656,-0.00198499,-0.00002065,-0.00009910,-0.00013599,-0.00001129,0.00005655,-0.0
0000800,-0.00001540,0.00005132,0.00002568,-0.00002044,0.00001126,-0.00000122,-0.
00043898,0.00027398,-0.00017047,0.00002695,-0.00000036,-0.00003660,-0.00004622,-
0.00013989,-0.00001551,0.00635070,-0.01115359,-0.00840690,-0.00400187,-0.0034676
7,0.00136112,-0.00042411,0.00080823,-0.00011729,-0.00035684,-0.00270563,0.003900
58,-0.00209911,-0.00136929,0.00201401,0.04113024,-0.14747809,-0.21068730,0.00037
077,-0.00064619,-0.00050395,0.00017630,0.00043846,-0.00041562,-0.00008802,-0.000
03523,-0.00002613,0.00062355,0.00235963,-0.00122004,-0.04534820,0.16185824,0.215
00927,0.00305448,-0.01423683,-0.01378430,0.00208184,-0.00192051,-0.00186842,-0.0
0117532,0.00059653,-0.00053202,-0.08690054,0.01074886,0.01778584,0.00112510,0.00
080058,-0.00104245,-0.00029410,-0.00064896,-0.00004333,-0.00062413,-0.00019913,-
0.00014133,-0.00011700,0.00010281,-0.00065853,0.00124952,-0.00139320,-0.00832152
,-0.00000757,0.00067803,-0.00092715,-0.00045773,0.00050781,-0.00072325,-0.006882
89,0.02155568,0.02655511,-0.00571088,0.00053402,-0.00145084,-0.00005270,0.001126
32,0.00119251,-0.00025072,0.00025817,0.00013629,0.00073301,0.00032599,0.00087674
,-0.00252903,0.00081189,0.00049016,0.00022624,-0.00001909,0.00015550,-0.00048139
,0.00015101,0.00013371,-0.00008849,0.00005238,0.00001752,-0.00005613,-0.00002748
,-0.00006360,-0.00373626,0.00237570,0.00143783,0.61091388,-0.00942263,-0.0233449
6,-0.01796296,0.00580793,-0.00031393,0.00060275,-0.00191779,0.00198756,-0.002404
65,0.01910683,-0.12037535,-0.06595597,-0.00057857,0.00090606,0.00138352,0.000910
63,-0.00055251,0.00157935,-0.00009631,-0.00022706,0.00006642,-0.00061074,-0.0005
7520,0.00029353,-0.00107142,0.00685384,0.01910224,-0.00060834,-0.00188692,0.0025
6604,0.00087739,-0.00031375,0.00180296,0.00613241,-0.00714547,-0.00909489,0.0009
4968,0.00083054,0.00009492,-0.00034411,-0.00020608,-0.00045835,0.00003909,0.0002
9264,0.00004537,-0.00014789,-0.00036839,-0.00049760,-0.00053563,-0.00069268,0.00
075401,-0.00021831,-0.00022433,0.00014398,0.00005443,-0.00008688,0.00005737,-0.0
0000417,-0.00002945,-0.00000134,-0.00005482,-0.00001844,0.00003260,0.00060072,0.
00014715,-0.00070354,0.00607662,0.55849829,0.00030556,-0.00501511,0.00100079,-0.
00341845,0.00352945,0.00018865,-0.00113589,-0.00437738,-0.00103902,0.01499793,-0
.06162084,-0.13476512,-0.00028573,0.00024444,-0.00273804,-0.00100152,-0.00018973
,-0.00122132,0.00020985,-0.00058475,-0.00043038,0.00066376,0.00088059,-0.0005558
9,0.00180699,-0.00470020,-0.03956195,0.00097919,0.00223423,-0.00237880,-0.001224
69,0.00056400,-0.00189546,0.00632053,-0.00368444,-0.00044631,-0.00147615,0.00040
305,0.00092878,0.00009105,0.00020035,0.00020516,-0.00010055,-0.00011750,-0.00005
747,-0.00030401,0.00008127,-0.00032089,-0.00059321,0.00043113,-0.00068957,0.0000
3593,0.00012029,-0.00001196,-0.00010448,0.00007938,0.00002132,-0.00002560,-0.000
02816,0.00002299,-0.00008329,0.00002987,-0.00001367,-0.00074701,-0.00020677,0.00
053349,0.01917701,-0.05652287,0.52024706,-0.00076081,-0.00021915,-0.00009505,0.0
0156410,-0.00249946,-0.00039590,-0.00361430,0.00035820,-0.00088178,-0.00277235,0
.00234161,0.00012851,-0.00027151,0.00024018,-0.00066436,-0.00031777,-0.00008903,
0.00014872,0.00021661,-0.00024540,-0.00029809,0.00067178,0.00053039,-0.00049141,
-0.00016273,-0.00004911,0.00038500,0.00004644,0.00002391,-0.00007873,-0.00003359
,-0.00003646,-0.00002902,0.00102377,-0.00010465,-0.00004744,-0.00013555,-0.00000
073,-0.00005167,-0.00001054,0.00002196,0.00003081,-0.00003710,0.00001493,0.00001
873,0.00003715,0.00007232,0.00005257,0.00002284,-0.00007854,-0.00017372,0.000005
12,-0.00000945,-0.00001443,-0.00001389,0.00000137,0.00000675,-0.00001154,0.00000
499,0.00001043,-0.00001463,0.00000311,-0.00000867,0.00002521,0.00013243,0.000290
62,-0.31603836,0.07137271,0.00931136,0.33450851,-0.00100708,0.00056775,0.0009427
2,0.00161722,-0.00471656,-0.00110744,-0.00085060,0.00219510,0.00130716,0.0197839
6,-0.00485265,0.00050630,-0.00020481,0.00009385,0.00055597,-0.00040325,-0.000105
86,0.00000729,-0.00001093,-0.00008548,-0.00008671,0.00028887,0.00039701,0.000761
46,-0.00024231,-0.00069677,0.00076768,0.00012543,0.00009806,-0.00015023,-0.00000
297,-0.00017121,0.00004428,-0.00021849,-0.00151724,-0.00396420,0.00117382,0.0001
2177,0.00018159,0.00001045,-0.00027123,-0.00019295,-0.00003026,-0.00004722,-0.00
003569,0.00005548,0.00019797,0.00010193,-0.00048654,-0.00009887,-0.00055800,0.00
000154,0.00000821,-0.00006405,0.00009811,-0.00006689,0.00000438,0.00000666,-0.00
000426,0.00002183,0.00003825,0.00000809,-0.00000773,-0.00006591,-0.00006301,0.00
038690,0.06886328,-0.06610963,-0.00110118,-0.07729083,0.07028610,-0.00178289,0.0
0171632,0.00084711,0.00209234,-0.00489974,0.00010361,-0.00098001,0.00327339,-0.0
0032507,0.02721034,-0.00654032,-0.00255087,0.00048377,0.00044590,-0.00090933,0.0
0004291,0.00006049,-0.00008131,-0.00018420,-0.00003610,0.00017012,-0.00037935,0.
00091464,-0.00159938,0.00005839,-0.00039929,0.00155914,0.00004715,-0.00005941,-0
.00007990,0.00013057,0.00000211,0.00038414,-0.00043537,-0.00315960,-0.00401691,0
.00142555,-0.00026783,0.00040074,-0.00007039,-0.00023212,-0.00036046,-0.00003915
,0.00005563,0.00000031,0.00010825,0.00004203,0.00027032,-0.00082686,-0.00041009,
-0.00045588,-0.00004478,-0.00005095,-0.00002628,0.00013114,-0.00002019,-0.000040
99,0.00001145,0.00002197,0.00001171,0.00002867,-0.00002326,0.00001162,-0.0000622
1,0.00051769,0.00022573,0.00507349,-0.00035121,-0.04415449,-0.00847761,0.0029906
6,0.04998040,-0.00039006,-0.00081107,-0.00015530,-0.00010937,0.00098772,-0.00028
906,-0.00104755,-0.00104509,-0.00048861,0.00023251,-0.00222741,0.00509348,-0.000
42557,0.00008356,-0.00012040,-0.00009490,0.00010457,-0.00002581,0.00017812,-0.00
003580,-0.00009644,0.00029561,-0.00002926,0.00016569,0.00037861,0.00057660,0.002
12398,-0.00003583,-0.00017516,0.00028060,0.00002919,-0.00015989,0.00004331,-0.00
010652,0.00010620,0.00006958,0.00017134,-0.00011025,-0.00012353,-0.00009532,-0.0
0006630,-0.00007623,0.00006714,0.00002916,0.00003856,0.00004178,-0.00014475,-0.0
0013934,-0.00078278,0.00015455,0.00098188,-0.00002681,-0.00004497,-0.00003600,0.
00002151,-0.00000906,-0.00002117,0.00002260,-0.00000759,-0.00003003,0.00002003,-
0.00002292,0.00002438,-0.00184178,-0.00011011,0.00042773,-0.05608565,0.03095324,
-0.05211868,-0.00264281,0.01410657,-0.02533846,0.05902424,0.00003838,0.00050151,
-0.00064962,0.00026801,-0.00013797,-0.00022307,-0.00003464,0.00018575,0.00019475
,-0.00514493,0.00788013,-0.01620094,0.00015067,-0.00116266,0.00057214,0.00032592
,0.00046164,0.00006696,-0.00002561,0.00032987,0.00023663,-0.00022007,-0.00004703
,-0.00008124,0.00066514,-0.00139722,-0.00453920,0.00018024,0.00052795,-0.0004267
2,-0.00031825,0.00006051,-0.00045898,0.00036184,0.00048129,0.00020413,-0.0002489
6,-0.00007417,0.00003235,0.00000822,0.00006945,0.00000345,0.00006681,-0.00003754
,0.00004547,0.00005833,-0.00014715,-0.00024812,0.00084546,0.00040315,-0.00000497
,-0.00000781,0.00000756,0.00001389,-0.00001618,0.00000887,-0.00000659,0.00000601
,-0.00003412,-0.00000487,0.00000202,0.00003146,-0.00001077,0.00001338,-0.0002141
3,-0.00012244,0.02978469,-0.11689247,0.12209055,-0.00010356,-0.00398609,0.005643
82,-0.03347302,0.12365391,0.00180738,0.00073424,0.00248463,-0.00129938,0.0008053
9,-0.00024389,0.00029217,-0.00086707,0.00004455,-0.00593926,0.01286092,-0.019532
74,0.00051977,-0.00120457,0.00053007,0.00006477,0.00002852,0.00010445,-0.0000301
9,0.00012435,0.00006427,0.00001907,0.00001066,0.00007322,0.00037127,-0.00268991,
-0.00461146,0.00031325,0.00083814,-0.00081714,-0.00042558,0.00018105,-0.00050325
,-0.00060637,0.00038685,0.00055784,0.00003564,-0.00030248,-0.00000227,-0.0001974
3,0.00007393,-0.00000268,-0.00000858,0.00016264,0.00014474,0.00018201,0.00002373
,0.00022044,-0.00049911,-0.00025074,0.00011680,0.00003745,0.00006608,0.00003374,
0.00000313,0.00003358,-0.00001530,-0.00001236,0.00003543,0.00001919,0.00000072,-
0.00001489,-0.00000727,0.00058693,0.00035361,0.00021100,-0.05050622,0.11868482,-
0.24371255,0.00114836,-0.00199867,0.00214161,0.05402272,-0.12632293,0.26182365,0
.00119816,0.00047857,0.00011321,-0.00019998,0.00134713,-0.00007666,0.00002265,-0
.00100210,-0.00066843,0.00251347,0.00447869,-0.00110482,-0.00000270,-0.00089102,
0.00030224,0.00057434,0.00044342,-0.00041998,0.00008065,0.00036157,0.00032137,-0
.00014607,-0.00027690,0.00009531,0.00039467,0.00028820,-0.00079803,-0.00015296,-
0.00010213,0.00003055,-0.00002301,0.00000917,-0.00007297,-0.00006008,0.00014838,
-0.00035648,0.00015288,-0.00012595,0.00004479,0.00006684,-0.00003714,-0.00000065
,-0.00002115,-0.00013632,-0.00003023,-0.00008744,0.00013580,0.00013137,-0.000974
15,0.00110941,-0.00027245,-0.00001198,0.00004310,-0.00003573,0.00002641,-0.00000
062,-0.00002053,0.00001552,-0.00000572,0.00000361,0.00004150,0.00002789,-0.00002
267,-0.00184965,0.00140923,-0.00001404,-0.13583325,-0.12524982,0.00750975,-0.011
18637,-0.02514717,0.00189174,0.00329685,0.00682069,0.00011973,0.14226839,-0.0022
6431,-0.00295113,-0.00481416,0.00482684,-0.00172658,0.00025400,-0.00118186,0.002
28096,0.00017439,-0.00995669,-0.01201528,0.00604293,0.00044630,-0.00032267,0.001
29141,0.00026110,0.00039948,0.00076054,0.00014422,0.00024286,0.00021361,-0.00001
171,-0.00018022,-0.00000466,0.00055267,-0.00018114,0.00012713,-0.00009720,-0.000
24775,0.00021912,-0.00011045,-0.00000183,-0.00027997,-0.00086987,0.00064490,-0.0
0026311,0.00034449,-0.00005566,-0.00020220,-0.00016988,0.00007195,0.00005510,-0.
00003626,0.00006634,0.00017318,0.00022023,0.00030888,0.00027376,-0.00039348,-0.0
0010404,-0.00064497,-0.00010055,0.00008002,0.00013705,0.00000990,-0.00001183,0.0
0001819,-0.00001591,0.00003285,0.00005104,0.00002080,-0.00001130,-0.00001983,0.0
0124473,-0.00051426,0.00069828,-0.12455962,-0.22750737,0.00623977,0.00520977,0.0
0808126,-0.00044614,-0.00826217,-0.01054026,-0.00163037,0.13621662,0.24546253,0.
00027472,-0.00351070,-0.00184291,0.00196788,-0.00091234,0.00030823,-0.00052248,0
.00114738,-0.00019764,-0.01585246,-0.01912162,0.00340671,-0.00073362,0.00001542,
-0.00155963,-0.00042543,0.00069890,-0.00123660,-0.00004971,0.00013100,0.00007521
,-0.00000778,-0.00004567,0.00013650,0.00002366,0.00058992,0.00098582,-0.00007637
,-0.00009229,0.00035963,0.00003940,-0.00006377,-0.00016731,-0.00060596,0.0008014
2,0.00055010,0.00005597,0.00003691,-0.00028418,-0.00019791,0.00000682,-0.0000262
7,0.00009224,0.00011216,0.00014896,0.00020749,-0.00015886,-0.00015263,0.00029262
,0.00028466,0.00039972,-0.00005672,-0.00001945,0.00003155,-0.00000548,-0.0000208
9,0.00001050,0.00000398,-0.00000922,-0.00000569,0.00000731,-0.00000848,0.0000077
7,-0.00006203,0.00001225,0.00011780,0.00773019,0.00847843,-0.04946180,0.00002571
,0.00072492,-0.00153095,0.01588385,0.01993181,0.00098571,-0.00681431,-0.00797167
,0.04974547,-0.08609221,0.09764493,-0.00623222,0.00062988,0.02828618,-0.00125149
,-0.00785935,0.00158054,-0.00055175,0.00586000,-0.01845891,0.00045864,-0.0001605
9,0.00021803,0.00040054,0.00003409,0.00000905,-0.00003997,0.00011638,-0.00013790
,-0.00002147,-0.00011596,-0.00024963,0.00002407,-0.00163383,-0.00181751,0.000342
05,-0.00025525,-0.00009983,0.00003684,0.00032352,-0.00025656,0.00035221,-0.00012
735,-0.00181125,0.00023270,-0.00146418,-0.00058908,0.00090359,0.00006367,0.00001
139,0.00003043,-0.00001983,0.00000219,-0.00013555,-0.00011787,0.00008141,0.00010
121,0.00037746,0.00003387,0.00011163,-0.00072147,-0.00017194,0.00051385,-0.00000
513,-0.00006674,0.00005429,0.00001290,0.00000964,-0.00000658,0.00000995,0.000010
94,-0.00000170,0.00003493,-0.00001982,0.00005102,-0.00143328,-0.00094634,0.00011
233,-0.00012141,-0.00015466,-0.00011672,0.00002743,0.00000296,-0.00011904,0.0000
7877,-0.00027784,-0.00055514,0.09230903,0.09808667,-0.31888451,0.01495457,-0.002
98557,-0.00339123,0.00024894,0.00063052,0.00161715,0.00007897,0.00738224,-0.0127
4187,0.00059864,-0.00010947,0.00017686,0.00033733,0.00000303,-0.00000085,-0.0000
4458,0.00004304,-0.00013330,-0.00000035,-0.00004297,0.00002387,-0.00001698,-0.00
075103,-0.00092211,-0.00067167,-0.00007660,-0.00011820,-0.00031539,0.00020481,-0
.00022515,0.00016401,0.00190545,0.00011684,-0.00001270,0.00060471,0.00038258,-0.
00084205,-0.00049691,0.00035848,-0.00000439,0.00021224,0.00019999,0.00047060,0.0
0040992,-0.00031639,-0.00022471,-0.00081083,0.00018085,-0.00028185,0.00017980,0.
00007706,0.00056218,-0.00001833,0.00002648,-0.00003989,0.00001972,-0.00001639,0.
00004648,-0.00001808,-0.00000812,0.00002029,0.00006851,0.00001142,0.00004332,-0.
00142552,-0.00088727,0.00085107,0.00001903,0.00014280,0.00015133,-0.00000449,-0.
00002593,-0.00018813,0.00000803,-0.00039100,-0.00061860,-0.10211835,0.33457408,-
0.00127448,0.01999913,-0.00442432,-0.00129713,0.00022918,-0.00416969,-0.00045121
,-0.00066525,0.00709366,-0.00403849,-0.01156354,0.00135944,0.00013345,-0.0002094
0,-0.00105634,0.00001860,-0.00001928,-0.00003131,-0.00024677,0.00044542,-0.00001
147,0.00007044,0.00010337,0.00002301,0.00220149,0.00666342,-0.00618473,0.0002433
2,0.00146232,0.00080951,-0.00014131,0.00070364,-0.00068540,-0.00073454,0.0003078
8,-0.00048875,0.00105294,0.00058980,0.00033624,-0.00041219,-0.00025312,-0.000292
42,0.00012823,0.00013136,0.00012896,-0.00006405,-0.00021455,-0.00021742,-0.00012
516,0.00001475,-0.00012702,0.00101742,-0.00009043,-0.00114407,0.00000597,-0.0000
1589,0.00002022,-0.00004640,0.00000003,-0.00004071,-0.00000723,-0.00000172,-0.00
000813,-0.00001681,-0.00002193,-0.00006776,-0.00136425,-0.00251495,0.00030745,0.
00013675,0.00014687,0.00026404,-0.00007929,0.00028386,-0.00012551,-0.00013817,-0
.00063410,-0.00094537,0.00525740,-0.01517463,0.01259980,-0.05543494,-0.04874805,
0.00313169,-0.15836322,-0.06311557,0.00112615,0.02701350,-0.00682137,0.00060037,
-0.00014342,0.01403870,-0.00408547,-0.00098183,0.00075538,0.00121001,0.00000095,
-0.00021585,-0.00010950,0.00023411,-0.00068817,0.00011801,-0.00003836,0.00052538
,-0.00025457,-0.00104899,-0.00687837,0.00411049,0.00010882,0.00148114,-0.0019839
9,0.00033841,-0.00048313,0.00034361,0.00120812,-0.00211542,-0.00079814,-0.000784
60,0.00023455,0.00051340,-0.00000430,-0.00010272,-0.00045823,-0.00048897,0.00018
041,0.00004299,-0.00006188,0.00006830,-0.00020686,-0.00099791,0.00060979,0.00044
748,0.00036812,-0.00055518,-0.00047150,-0.00012804,0.00010976,0.00011442,-0.0001
6326,-0.00001678,0.00002637,-0.00022696,-0.00000219,-0.00005547,0.00018989,-0.00
010401,0.00004564,-0.00096584,-0.00165616,0.00120442,0.00015598,0.00023594,0.000
31365,-0.00017957,0.00003122,0.00016208,-0.00031863,-0.00150502,-0.00075869,-0.0
0030516,-0.00114421,0.00040568,0.52479090,-0.02936815,-0.00171543,0.00253007,-0.
02592448,-0.17998039,0.00924477,-0.01756594,-0.09637232,0.01100670,0.00695267,0.
00905914,-0.00324341,-0.00093949,-0.00077528,0.00076051,-0.00041736,-0.00016096,
0.00008998,-0.00012178,-0.00037909,0.00025421,0.00070049,0.00249036,-0.00057376,
-0.00090784,-0.00490314,0.00291610,0.00049649,0.00065036,-0.00175211,0.00022337,
-0.00043962,0.00019601,0.00129642,0.00004222,-0.00040725,-0.00066019,0.00019928,
0.00038588,-0.00002379,-0.00005565,-0.00033348,-0.00032578,0.00014581,0.00001843
,-0.00001037,0.00003209,0.00001107,-0.00037714,0.00020402,0.00017954,0.00023843,
-0.00048390,-0.00034082,-0.00010335,0.00005976,0.00009188,-0.00011113,-0.0000204
5,0.00002220,-0.00011601,-0.00001340,-0.00003093,0.00016172,-0.00002127,0.000068
50,-0.00100263,-0.00189291,0.00009308,0.00041241,0.00063223,0.00111546,-0.000378
17,0.00009445,0.00006383,-0.00034545,-0.00091190,-0.00041875,-0.00050596,-0.0001
1805,0.00050997,0.05551046,0.36331213,0.00278756,0.00017479,0.01384809,-0.002591
69,0.00928164,-0.06319453,0.00071611,0.01003403,0.02174123,-0.00108338,-0.001370
05,0.00425780,-0.00039660,0.00014518,-0.00016927,-0.00003177,0.00001658,0.000052
29,0.00008270,0.00009711,-0.00006634,0.00016958,0.00012162,0.00015037,-0.0006323
3,-0.00031814,-0.00007981,0.00011537,0.00003549,-0.00009964,-0.00008336,-0.00011
881,-0.00000323,-0.00033414,0.00006846,-0.00022458,-0.00004726,-0.00006906,-0.00
007831,0.00000717,-0.00004803,0.00005566,0.00002791,-0.00001804,-0.00001371,-0.0
0003673,-0.00002735,-0.00001343,-0.00000726,0.00004567,0.00004022,0.00005437,0.0
0002024,-0.00007344,-0.00000613,-0.00000079,-0.00000347,0.00000674,0.00001082,-0
.00001108,0.00000542,0.00000997,0.00000133,-0.00000960,0.00001836,-0.00001380,0.
00050773,0.00069575,0.00004217,0.00001094,-0.00013767,-0.00023055,0.00000025,-0.
00002184,-0.00000135,0.00027873,0.00016066,0.00009881,-0.00000225,-0.00007511,-0
.00180861,0.02290847,-0.02785281,0.07690827,0.01068433,0.00109919,-0.00086591,-0
.05567759,-0.03503917,0.00033374,-0.00274865,0.01701647,-0.00148752,-0.00260400,
-0.00489568,0.00236441,0.00053844,-0.00004917,-0.00051589,0.00008777,0.00010318,
0.00001279,-0.00003476,0.00028098,-0.00010785,-0.00015382,-0.00077238,0.00021317
,0.00048134,0.00310607,-0.00194599,-0.00023230,-0.00060392,0.00097013,-0.0001437
0,0.00021141,-0.00012757,-0.00070465,0.00026575,0.00020166,0.00030430,-0.0000999
9,-0.00029065,-0.00000729,0.00008196,0.00020284,0.00018890,-0.00006552,-0.000005
51,0.00002153,-0.00001849,0.00001988,0.00026348,-0.00015409,-0.00012116,-0.00016
906,0.00021797,0.00025731,0.00003859,-0.00004654,-0.00004209,0.00007186,0.000002
72,-0.00000500,0.00008005,0.00000418,0.00002922,-0.00008293,0.00001908,-0.000015
48,0.00050568,0.00093935,-0.00033075,-0.00015944,-0.00033637,-0.00037687,0.00009
517,-0.00004287,-0.00008480,0.00018355,0.00061182,0.00026977,0.00019086,0.000277
31,-0.00035898,-0.24115822,0.01873808,-0.01473892,0.50563115,-0.00044084,-0.0047
9550,0.00041916,-0.04162019,0.00866776,-0.00404803,-0.00176190,-0.00211781,-0.00
050108,-0.00131090,0.00052223,0.00045819,-0.00002748,0.00008653,0.00000880,0.000
00950,-0.00000735,0.00000098,-0.00000406,-0.00002230,0.00000272,-0.00001573,-0.0
0001663,-0.00000513,-0.00001988,0.00002227,-0.00007181,-0.00001442,0.00003197,-0
.00009959,-0.00000441,-0.00001734,0.00000090,-0.00017067,-0.00036222,-0.00006284
,-0.00002439,-0.00002283,-0.00001256,0.00000222,-0.00000192,0.00000615,-0.000011
92,-0.00000558,0.00000002,-0.00001412,0.00000894,-0.00003311,-0.00008651,0.00006
472,0.00005314,0.00000809,0.00000658,-0.00000799,-0.00000196,0.00000541,-0.00000
146,-0.00000120,0.00000300,-0.00000080,-0.00001352,0.00000374,-0.00000129,0.0000
0104,-0.00000891,-0.00000063,0.00005026,0.00009180,0.00008482,-0.00001368,-0.000
00865,0.00000081,-0.00000512,0.00000765,-0.00000061,-0.00002182,-0.00001959,-0.0
0002029,-0.00022678,0.00025131,-0.00021020,0.04243777,-0.09968468,0.00709871,0.0
2447081,0.62067099,0.00065880,0.00078123,0.00228447,0.00047034,-0.00357110,-0.00
165196,0.00035815,0.00135690,-0.00476301,0.00046219,0.00006551,0.00215413,0.0000
2550,0.00000648,0.00001423,-0.00001417,0.00000749,-0.00000044,0.00004604,0.00003
445,-0.00003480,-0.00001610,-0.00006228,0.00005894,-0.00029484,-0.00021081,0.000
17035,-0.00001941,-0.00017653,0.00010092,0.00001555,-0.00003343,0.00008615,-0.00
018206,0.00016569,-0.00011575,0.00002058,-0.00001303,-0.00007674,0.00000757,-0.0
0001736,0.00003535,0.00002545,-0.00002012,-0.00002002,-0.00003235,-0.00001585,0.
00000521,0.00004733,0.00000433,0.00001378,0.00001393,0.00002140,0.00001391,0.000
00985,-0.00000839,-0.00000330,0.00000476,0.00000344,-0.00000399,0.00000227,0.000
00174,0.00000183,-0.00001044,0.00000049,-0.00000729,0.00017731,0.00015132,-0.000
10123,-0.00001360,-0.00008275,0.00000261,-0.00004710,-0.00000245,0.00000649,0.00
004427,0.00006048,0.00005697,0.00001455,-0.00000395,-0.00098965,-0.01706200,0.00
514683,-0.06705546,-0.00994951,-0.00143758,0.58200104,-0.00128926,-0.00187318,0.
00006583,-0.00320809,0.00698243,-0.00106592,0.00259137,-0.00080239,0.00022337,-0
.00020857,0.00080991,-0.00016770,-0.00006203,0.00003608,0.00006380,-0.00000204,-
0.00001222,-0.00000565,0.00001253,-0.00003576,0.00000726,0.00001301,0.00004888,-
0.00001998,-0.00004061,-0.00033980,0.00020439,0.00002774,0.00008745,-0.00011556,
0.00002079,-0.00002452,0.00001220,0.00004763,-0.00016113,-0.00005171,-0.00005146
,0.00001230,0.00002766,0.00000456,-0.00000451,-0.00002643,-0.00003221,0.00001007
,0.00000075,-0.00000606,0.00000792,-0.00001528,-0.00006643,0.00004175,0.00003219
,0.00002582,-0.00003301,-0.00002764,-0.00000942,0.00000617,0.00000837,-0.0000099
1,-0.00000136,0.00000197,-0.00001455,0.,-0.00000291,0.00001144,-0.00000768,0.000
00404,-0.00002892,-0.00006145,0.00007307,0.00001908,0.00002586,0.00002105,-0.000
00600,0.00000049,0.00000769,-0.00002008,-0.00007971,-0.00003652,0.00002087,0.000
02465,-0.00000476,-0.03246923,-0.03689097,0.00164759,-0.08193729,-0.08921103,0.0
0733281,0.10726703,-0.00082566,0.00020161,0.00000832,0.00388138,-0.00040488,0.00
017287,-0.00276776,0.00022817,-0.00011751,0.00028740,0.00042008,-0.00014799,-0.0
0002951,-0.00000655,0.00003049,-0.00001655,-0.00000796,-0.00000158,0.00000413,-0
.00001645,0.00001107,0.00002861,0.00008860,-0.00001639,-0.00002482,-0.00022728,0
.00014980,0.00004939,0.00003425,-0.00008322,0.00001944,-0.00001419,0.00000208,0.
00007569,-0.00001763,-0.00002875,-0.00003812,0.00000833,0.00002272,0.00000050,-0
.00000571,-0.00001811,-0.00001961,0.00000783,0.00000015,-0.00000160,0.00000306,-
0.00000053,-0.00002936,0.00001611,0.00001456,0.00001870,-0.00002424,-0.00002222,
-0.00000541,0.00000420,0.00000580,-0.00000785,-0.00000056,0.00000128,-0.00000832
,-0.00000107,-0.00000259,0.00001113,-0.00000111,0.00000476,-0.00003808,-0.000075
74,0.00000861,0.00002293,0.00004677,0.00005130,-0.00001501,0.00000297,0.00000271
,-0.00002001,-0.00004774,-0.00001632,-0.00005443,0.00001362,0.00001501,0.0030253
9,0.00852360,-0.00057193,-0.09997599,-0.28850808,0.01805886,0.10627479,0.3004260
5,-0.00004406,-0.00013761,0.00012870,-0.00059867,0.00051674,0.00023720,0.0003242
9,-0.00005271,0.00078088,-0.00004229,0.00002557,0.00006334,-0.00000446,0.0000030
1,0.00000372,0.00000414,-0.00000161,0.00000052,-0.00000449,-0.00000479,0.0000030
7,-0.00000404,-0.00000374,-0.00000881,0.00001050,-0.00000823,-0.00000458,-0.0000
1559,0.00000732,-0.00000888,-0.00000035,0.00000229,-0.00000093,-0.00001909,-0.00
000455,-0.00000959,0.00000302,-0.00000032,-0.00000079,-0.00000016,-0.00000055,0.
00000111,0.00000026,-0.00000117,-0.00000144,-0.00000289,-0.00000005,-0.00000176,
-0.00000197,0.00000071,0.00000283,0.00000284,0.00000344,-0.00000235,0.00000129,-
0.00000031,-0.00000009,-0.00000018,0.00000014,0.,-0.00000099,-0.00000027,-0.0000
0006,0.00000006,-0.00000105,-0.00000094,0.00001039,-0.00000181,0.00001284,0.0000
0704,-0.00000344,-0.00000974,0.00000420,-0.00000009,0.00000043,-0.00000269,-0.00
000005,-0.00000156,0.00000939,-0.00000059,-0.00001961,-0.00280460,-0.00356642,0.
00098058,0.00862873,0.01890810,-0.05355176,-0.00687520,-0.01964450,0.04700716,-0
.00195601,-0.00104477,-0.00031781,0.00415782,0.00971727,0.00040123,0.00176991,-0
.00325074,-0.00052615,0.00028144,0.00084083,-0.00070436,-0.00007386,0.00004013,0
.00008499,0.00000037,-0.00001651,-0.00000729,0.00001729,-0.00004773,0.00000490,0
.00001231,0.00003222,-0.00001657,-0.00002363,-0.00047627,0.00027457,0.00001307,0
.00015056,-0.00011128,0.00002001,-0.00002289,0.00001799,0.00014810,-0.00007367,-
0.00003705,-0.00003547,0.00002196,0.00006378,-0.00000023,-0.00000921,-0.00004271
,-0.00003263,0.00001428,0.00000452,0.00000078,0.00000388,-0.00001085,-0.00005028
,0.00002147,0.00001932,0.00002279,-0.00003727,-0.00004085,-0.00000566,0.00000638
,0.00000669,-0.00001106,-0.00000258,0.00000179,-0.00001311,-0.00000134,-0.000003
84,0.00000850,-0.00000799,0.00000050,-0.00011849,-0.00018657,0.00008031,-0.00000
095,0.00002523,0.00004046,-0.00002066,0.00000483,0.00000952,-0.00001759,-0.00011
479,-0.00007305,0.00018522,-0.00004157,0.00032855,-0.03289382,0.01868560,0.02487
248,-0.07496383,0.04786055,0.05984604,0.00557009,-0.00625103,-0.00958121,0.09390
552,0.00049024,0.00008524,-0.00024090,-0.00248146,-0.00148169,0.00096489,-0.0007
7515,0.00036837,0.00006203,-0.00019763,-0.00025930,0.00008738,0.00004784,-0.0000
0259,-0.00001504,0.00001961,0.00000616,-0.00000480,-0.00000298,0.00000842,-0.000
00681,-0.00003509,-0.00010737,0.00001425,0.00010684,0.00016512,-0.00009997,-0.00
005358,-0.00002319,0.00008960,-0.00000830,0.00002563,-0.00001182,-0.00003770,0.0
0003846,0.00002528,0.00001953,-0.00000374,-0.00002183,0.00000157,0.00000685,0.00
001280,0.00001263,-0.00000433,0.00000072,0.00000481,-0.00000316,0.00000542,0.000
02258,-0.00001959,-0.00001335,-0.00001007,0.00001368,0.00002101,0.00000192,-0.00
000286,-0.00000321,0.00000582,-0.00000009,-0.00000040,0.00000782,0.00000081,0.00
000201,-0.00000644,0.00000446,-0.00000276,0.00002462,0.00005122,-0.00000941,-0.0
0002243,-0.00001254,-0.00004400,0.00002959,-0.00000291,-0.00000272,0.00000071,0.
00003908,0.00002086,0.00004402,0.00001973,-0.00011269,0.00815975,0.00159709,0.00
052875,0.05211702,-0.14142964,-0.11743665,0.00916016,-0.01257024,-0.02084481,-0.
06191729,0.14576032,-0.00007282,0.00049479,-0.00036034,-0.00025854,-0.00385582,0
.00112534,-0.00265706,0.00099674,0.00057382,0.00000570,-0.00007004,-0.00005544,0
.00002894,-0.00003077,-0.00001044,-0.00000359,0.00000185,0.00000271,-0.00001286,
-0.00000179,0.00000799,0.00000745,0.00001784,-0.00001588,0.00006864,0.00006633,-
0.00002588,-0.00002826,-0.00004144,-0.00000735,-0.00000163,0.00001173,-0.0000147
7,0.00001052,0.00000814,0.00000957,-0.00001349,-0.00000383,-0.00000736,0.0000041
7,0.00000456,0.00000429,-0.00000143,0.00000055,-0.00000022,0.00000242,0.00000227
,0.00000420,0.00000140,-0.00000272,-0.00000349,-0.00000206,-0.00000024,0.0000032
2,-0.00000297,0.00000047,0.00000030,0.00000112,-0.00000031,0.00000059,0.00000170
,-0.00000011,0.00000102,0.00000213,0.00000162,0.00000285,0.00000403,-0.00000518,
-0.00001982,0.00000395,0.00001617,0.00001668,-0.00000218,0.00000206,-0.00000253,
-0.00000975,0.00000967,0.00000692,-0.00005298,0.00004252,-0.00003903,0.00262632,
0.00577122,0.00992461,0.06460721,-0.11612736,-0.19820724,-0.00199491,0.00376016,
0.00361535,-0.07063983,0.12608775,0.20232783,-0.00212293,-0.00090217,0.00075675,
0.00447294,0.00891875,-0.00211696,0.00043669,-0.00297214,0.00073678,0.00047150,0
.00107677,-0.00008508,-0.00008509,0.00003894,0.00010628,0.00000264,-0.00001448,-
0.00000304,0.00001729,-0.00005959,0.00000826,0.00000551,0.00006189,-0.00003417,-
0.00016047,-0.00069506,0.00045370,-0.00003894,0.00008133,-0.00018230,0.00001569,
-0.00004872,0.00004742,0.00010310,-0.00003836,-0.00006365,-0.00006609,0.00000449
,0.00003563,0.00000516,-0.00001239,-0.00002775,-0.00003005,0.00000939,-0.0000008
3,-0.00000685,0.00000125,-0.00000482,-0.00004411,0.00002707,0.00003008,0.0000316
1,-0.00003483,-0.00004550,-0.00000802,0.00000778,0.00000622,-0.00001019,-0.00000
056,0.00000069,-0.00001256,0.00000060,-0.00000391,0.00001220,-0.00000252,0.00000
082,-0.00002109,-0.00010995,0.00007097,0.00000909,-0.00000446,0.00000397,-0.0000
1095,0.00000058,0.00002468,-0.00000954,-0.00010217,-0.00004114,0.00015791,-0.000
03573,-0.00019903,-0.02725166,0.01267984,-0.03419766,-0.05858949,0.02018231,-0.0
4194169,0.00383021,-0.00357035,0.01099679,0.00410406,-0.00472897,0.00837867,0.07
479243,0.00049484,0.00005477,0.00010816,-0.00224820,-0.00056724,-0.00095868,0.00
016856,-0.00022925,0.00010208,-0.00011724,-0.00023475,0.00005447,0.00001390,0.00
002108,-0.00002202,0.00001304,0.00000693,0.00000036,0.00000730,0.00001952,-0.000
01337,-0.00002420,-0.00007096,0.00001791,-0.00000948,0.00014346,-0.00007679,-0.0
0001744,-0.00002232,0.00008800,-0.00001067,0.00000675,0.00000583,-0.00004640,0.0
0003456,0.00000923,0.00003864,0.00000164,-0.00001119,-0.00000700,0.00000507,0.00
000829,0.00001566,-0.00000248,0.00000190,0.00000289,-0.00000459,-0.00000152,0.00
002071,-0.00001608,-0.00001571,-0.00001158,0.00001414,0.00001842,0.00000589,-0.0
0000458,-0.00000300,0.00000433,-0.00000049,-0.00000022,0.00000558,-0.00000014,0.
00000148,-0.00000840,-0.00000076,-0.00000309,0.00004581,0.00006768,-0.00000762,-
0.00001978,-0.00006280,-0.00006327,0.00000584,-0.00000845,0.00000257,0.00003555,
0.00003044,0.00001604,0.00002838,0.00000727,0.00009568,0.00674826,0.00088588,0.0
0206580,0.02253683,-0.09341587,0.09722563,0.00600982,-0.00809584,0.02481135,-0.0
0392294,0.00773262,-0.01715685,-0.02975853,0.09370476,-0.00065572,-0.00081348,-0
.00024193,0.00151387,0.00564902,0.00034554,0.00220929,-0.00151468,0.00093449,0.0
0009786,0.00044134,-0.00023982,-0.00003130,0.00002836,0.00005228,0.00001236,-0.0
0000635,-0.00000551,-0.00000127,-0.00003377,0.00001162,-0.00002028,0.00000061,-0
.00002432,-0.00001001,-0.00024694,0.00016502,-0.00005084,0.00003844,-0.00006627,
0.00000987,-0.00001040,0.00001147,0.00004188,-0.00004479,0.00000297,-0.00002264,
0.00000243,0.00001489,0.00000249,-0.00000552,-0.00001018,-0.00001231,0.00000310,
0.00000095,-0.00000006,0.00000125,0.00000018,-0.00001829,0.00000931,0.00001047,0
.00001137,-0.00001077,-0.00001754,-0.00000337,0.00000490,0.00000150,-0.00000394,
0.00000067,-0.00000017,-0.00000434,0.00000087,-0.00000238,0.00000632,0.00000162,
-0.00000050,-0.00003413,-0.00006006,0.00006503,0.00000521,0.00002262,-0.00001777
,0.00002742,0.00000297,0.00001509,-0.00002809,-0.00004907,-0.00001985,0.00008015
,-0.00005469,-0.00006502,-0.01040223,-0.00195649,0.00503919,-0.04674042,0.095599
87,-0.26042372,0.00067614,-0.00164892,0.00078518,-0.00394480,0.01094844,-0.01885
750,0.05728980,-0.10629988,0.27253661\\-0.00001026,0.00001342,0.00000430,0.00000
714,-0.00000475,-0.00000329,0.00000425,0.00000688,0.00000262,-0.00000148,0.00001
047,0.00000116,0.00000107,-0.00000605,-0.00000100,0.00000727,0.00000013,0.000008
23,-0.00000091,0.00000113,0.00000511,-0.00000344,0.00000289,0.00000335,-0.000003
73,0.00000020,0.00001421,-0.00000444,-0.00000107,-0.00000346,0.00001247,0.000010
35,-0.00000410,-0.00000608,-0.00001947,-0.00002703,-0.00001270,0.00000914,0.0000
0698,0.00000978,-0.00000444,-0.00000773,-0.00000099,-0.00001167,-0.00001114,-0.0
0000580,0.00000529,0.00000212,0.00001429,-0.00000602,0.00000779,-0.00000103,-0.0
0000444,0.00000070,-0.00000427,0.00000270,-0.00000522,-0.00000366,-0.00000413,-0
.00000192,0.00000093,-0.00000555,-0.00000470,-0.00000339,-0.00000066,0.00000440,
-0.00000691,-0.00000642,-0.00000510,0.00000844,-0.00000377,0.00000521,0.00000047
,-0.00000474,0.00000146,0.00001036,0.00000793,0.00000052,-0.00000040,-0.00000453
,-0.00000260,0.00000056,0.00000234,0.00000450,-0.00000325,-0.00000700,-0.0000034
7,-0.00000172,0.00001161,-0.00000055,-0.00000152,0.00000512,0.00000770,-0.000001
07,0.00000511,0.00000094\\\@
