1\1\GINC-NODE-001\Freq\RwB97XD\def2SVP\C11H13Cl1O1\JP2658\30-Dec-2023\0\\# wb97x
d def2svp scrf=(iefpcm,solvent=toluene) freq=noraman\\imda-1_1_opt_sqm_reopt.out
\\0,1\C,-2.46717,0.31492,-0.21937\C,0.98861,1.27213,1.11657\C,-0.91878,-1.47829,
-0.04081\C,1.36787,-0.00252,1.09886\C,-2.67232,-0.35014,0.93932\C,-1.71974,-1.45
742,1.04678\C,0.22739,-2.40378,-0.32239\H,0.46345,-2.97815,0.58773\H,-0.07423,-3
.14854,-1.07923\C,1.48772,-1.71422,-0.85731\H,2.2609,-2.45138,-1.12062\H,1.25075
,-1.18923,-1.80026\C,2.16482,-0.66388,0.00865\O,3.31425,-0.34929,-0.18926\H,1.05
87,-0.6284,1.94112\H,0.41392,1.71018,1.93372\C,-1.34682,-0.36408,-0.95938\H,-1.6
8767,-0.75373,-1.93668\H,-0.53031,0.34457,-1.18303\Cl,1.28423,2.38368,-0.1879\C,
-3.17233,1.52413,-0.73952\H,-2.46588,2.35908,-0.87993\H,-3.96101,1.85548,-0.0495
5\H,-3.6353,1.32964,-1.72081\H,-1.65152,-2.14005,1.89661\H,-3.42328,-0.09892,1.6
9088\\Version=ES64L-G16RevC.01\State=1-A\HF=-961.7027581\RMSD=4.785e-09\RMSF=6.6
19e-06\ZeroPoint=0.2124072\Thermal=0.2248687\ETot=-961.4778894\HTot=-961.4769452
\GTot=-961.5299529\Dipole=-1.2066095,-0.5496667,0.1819004\DipoleDeriv=-0.0825235
,-0.1300738,-0.0717709,-0.1309396,0.0825978,-0.1902183,-0.0469765,-0.16367,0.147
989,-0.0785398,0.073218,-0.1367222,-0.083693,0.6973988,-0.3674911,-0.1253281,-0.
6151858,0.3676637,-0.1180442,-0.0977985,-0.1321483,-0.1517783,-0.1238258,-0.0191
395,-0.0856296,-0.0413612,0.093862,-0.2173789,0.0784838,-0.0110934,0.0888874,-0.
3876464,-0.0714169,0.0922636,-0.0777666,-0.2960013,0.0442642,-0.1403184,-0.10918
31,-0.0483595,-0.124263,0.0933246,-0.2478644,0.1775117,-0.136676,-0.1461888,-0.0
65472,0.079043,-0.1654944,0.0596177,-0.127833,0.0968842,-0.2524205,-0.0420908,0.
1977547,-0.0006707,0.0030849,0.0531927,0.1275735,-0.0114435,0.0626291,-0.0338,0.
1058579,-0.0270926,0.0413099,0.0044106,0.0303091,0.0037395,0.0561285,-0.0217767,
0.1350809,-0.067947,-0.0579294,-0.0127792,-0.0100429,0.0330148,-0.0657559,-0.095
6111,0.0097098,-0.1420621,-0.021796,-0.0209594,0.056624,-0.0223619,-0.0228509,-0
.1400835,-0.1521276,-0.2322113,-0.2011952,-0.1160432,-0.090123,0.0555493,0.04463
21,0.0227075,-0.0224431,-0.0496798,0.0464545,-0.0426949,0.0877798,0.0684672,-0.0
387044,-0.0612206,-0.0619303,0.0032791,0.0850287,-0.0291332,0.0541292,0.0104872,
1.3845725,0.0285054,-0.0706211,0.2694745,0.8063399,0.4422561,-0.0542562,0.709438
2,0.6542934,-1.2573868,-0.0373432,0.0665518,-0.2283421,-0.5423796,-0.1044096,0.1
199794,-0.2709717,-0.4743742,0.1555229,-0.0315011,0.0514788,0.0332778,0.0073242,
0.0422118,0.0770426,-0.0225229,0.0783258,0.1360565,0.0423582,0.0823549,0.0243101
,0.0246285,0.0492008,0.0709109,0.0748692,0.0241172,-0.0638648,0.1502053,0.129991
,0.1751403,-0.0949767,0.1165438,0.1487663,0.1239026,-0.1734131,0.0901536,-0.0164
153,-0.0546334,-0.0222976,0.0882507,-0.0631038,-0.0291648,-0.0381235,-0.0466399,
0.0274834,-0.0512961,0.0587086,-0.0562085,0.0461873,0.0439399,0.0385235,0.020775
6,0.0893623,-0.0987227,-0.1132409,0.0703863,-0.0209687,-0.5041734,0.1653492,0.01
03078,0.4364481,-0.3330436,0.0854491,0.0093258,0.0254565,0.0428783,0.0191427,0.0
331463,-0.0101604,0.0577198,0.0555204,-0.0114812,-0.0904313,0.0135561,-0.0105633
,-0.0979744,0.0622437,0.00396,0.0361884,0.0722719,-0.0451772,0.0918889,0.0512548
,0.0620731,0.0197936,0.0078004,0.1075771,-0.0466056,-0.0049189,0.0151718,0.06174
72,-0.0885137,0.0209965,0.0125048,-0.0299077,-0.1171958,0.0228935,-0.0956002,0.1
100744,0.073155,-0.024876,0.0513695,0.0186711,0.1154935,0.005023,0.1128995,-0.00
4862,0.0004418,0.063674,0.1122781,0.0957944,0.0864728,-0.0302853,0.1096651,-0.01
34767,0.0258756\Polar=138.3937087,-15.9929937,146.9940145,-14.430685,-10.7802162
,126.6885913\Quadrupole=-9.8688796,3.4838178,6.3850618,-4.0572956,0.7395473,0.41
95991\PG=C01 [X(C11H13Cl1O1)]\NImag=1\\0.39454536,-0.16029420,0.54664986,-0.1013
6183,-0.24112364,0.63949337,0.00118232,0.00086470,0.00000494,0.26506696,-0.00048
080,-0.00029847,-0.00007905,-0.22247431,0.74930943,-0.00063335,0.00006902,0.0012
1533,-0.18405771,0.04925811,0.42565187,-0.01854804,0.02460801,0.00194020,-0.0010
4616,-0.00188685,-0.00097398,0.54616517,0.02445924,-0.02450148,0.00788839,-0.000
32861,-0.00106697,-0.00104687,-0.18870069,0.42766769,0.00403087,0.00467910,-0.00
508718,-0.00050047,-0.00068185,0.00043153,-0.24004238,-0.06624538,0.60427955,0.0
0077811,0.00031269,-0.00026630,-0.10952489,0.14525614,0.03050951,-0.00107633,-0.
00051811,-0.00116205,0.28634081,0.00106450,0.00085902,-0.00001603,0.16018548,-0.
53520395,-0.02393442,-0.00081725,-0.00061581,-0.00054821,-0.13571674,0.82545896,
0.00063868,0.00054554,-0.00060986,0.02399256,-0.00537037,-0.08697688,-0.00106957
,-0.00081297,-0.00064078,-0.17468539,-0.06079505,0.47375770,-0.10115892,-0.01919
676,0.07444222,0.00075526,-0.00066865,-0.00000026,-0.03090454,0.02218958,0.02692
994,0.00060284,0.00096787,0.00054886,0.46444712,-0.01522280,-0.17859037,0.166737
69,-0.00093616,0.00076394,0.00041507,0.03413070,-0.00441100,-0.02767184,-0.00118
488,-0.00116604,-0.00063483,-0.17079350,0.43572682,0.06811224,0.17245689,-0.3893
6025,0.00068608,-0.00006809,-0.00096171,0.01293458,-0.01354114,0.00844907,0.0005
3910,0.00074734,0.00062018,-0.25623279,-0.15817331,0.70221262,0.00706804,0.02294
090,-0.02645082,-0.00102669,0.00141880,0.00009257,-0.21871894,0.01510824,0.19363
884,-0.00267614,-0.00279854,-0.00113105,-0.14857995,0.09109830,0.01138121,0.4311
4278,0.01239478,-0.03216636,0.03694304,-0.00057767,0.00007650,-0.00043502,0.0109
3180,-0.08819953,0.01859899,-0.00020813,-0.00058245,-0.00007997,0.09782950,-0.17
391739,0.01368548,-0.15970889,0.45928302,-0.01334304,0.02271517,-0.00131187,-0.0
0061415,-0.00005943,-0.00092962,0.20035810,0.01247869,-0.36001127,-0.00052701,-0
.00037017,-0.00006393,0.00036325,0.02631323,-0.09429409,-0.20397135,-0.21795152,
0.71708342,0.00004238,-0.00056271,-0.00084430,-0.00024656,-0.00018862,0.00050975
,-0.16623725,0.08082907,0.02747013,0.00042823,0.00104780,-0.00086624,0.00260709,
0.00123927,0.00459963,-0.01051923,0.01684167,0.00454367,0.48159639,0.00053265,-0
.00269787,0.00209977,-0.00009670,-0.00003521,0.00080702,0.07836627,-0.14369830,-
0.01021129,0.00007705,0.00035692,-0.00143373,0.00259625,0.00444919,0.00357858,0.
00390192,0.00413742,-0.00132932,-0.01954896,0.54084662,0.00068517,0.00299711,-0.
00494986,0.00000121,0.00052198,-0.00018265,0.02328156,-0.00644402,-0.09185488,-0
.00027061,-0.00025084,-0.00094685,0.00366041,0.00226465,-0.00106880,0.01976142,-
0.01652734,-0.00009840,0.02667613,-0.00868333,0.59091518,-0.00010994,0.00094206,
-0.00086286,0.00004601,0.00007059,-0.00007905,-0.00541529,0.01305239,-0.02150315
,-0.00005574,-0.00021956,-0.00002073,-0.00007895,-0.00008037,-0.00018547,0.00086
761,-0.00017727,-0.00044358,-0.06149577,0.03018447,-0.04907676,0.06800211,-0.000
01201,-0.00054530,0.00090761,0.00001100,-0.00017187,0.00004388,0.00537185,-0.013
05721,0.01760432,-0.00003222,-0.00000110,0.00022200,-0.00020043,-0.00026222,-0.0
0010227,-0.00162004,0.00087231,0.00007221,0.02957462,-0.11623698,0.11273890,-0.0
3342562,0.12563383,0.00019110,-0.00025781,0.00026493,-0.00006755,0.00000844,0.00
013384,0.00231948,-0.00487641,0.00612069,0.00008796,0.00029599,-0.00006983,-0.00
004591,0.00028539,0.00016280,0.00051894,-0.00111831,0.00110711,-0.04940029,0.114
61548,-0.23344854,0.04948954,-0.12344444,0.24852584,-0.00097235,0.00025418,0.001
02825,0.00008286,0.00029080,-0.00025043,0.00558801,0.01793712,0.02088330,0.00009
768,0.00017934,-0.00030080,-0.00106381,-0.00007161,-0.00122939,-0.00082520,0.000
30775,-0.00052006,-0.06238645,-0.04595546,-0.05117528,-0.00238543,-0.00443427,-0
.00422096,0.07456354,0.00079075,-0.00010533,-0.00101372,0.00003539,0.00013040,-0
.00011833,-0.00097545,-0.01245494,-0.01487403,0.00004911,0.00006847,0.00015802,0
.00082701,-0.00057003,0.00097566,-0.00077056,0.00005446,0.00130800,-0.05018394,-
0.16193645,-0.12146656,0.00483827,0.01126928,0.01147576,0.05280995,0.17438606,-0
.00005347,-0.00001401,0.00005562,-0.00008381,0.00006433,0.00006157,0.00275515,-0
.00339001,-0.00409075,0.00008745,0.00005289,-0.00003085,0.00061873,0.00025824,0.
00049466,0.00011304,-0.00083483,0.00115396,-0.05581499,-0.12073733,-0.17291576,-
0.00689617,-0.01744296,-0.01663207,0.05175070,0.13162679,0.18333912,-0.00010510,
-0.00092946,0.00059748,-0.00155340,-0.00145693,0.00237430,-0.02694205,-0.0073635
4,0.01203863,0.01217235,0.00784290,0.01268778,-0.00005994,0.00079509,0.00065329,
-0.00074919,0.00067096,-0.00210712,-0.15712592,-0.04473045,0.03589687,0.00581146
,0.00292565,-0.00189872,-0.01025940,-0.00572233,0.00551463,0.54573229,0.00076448
,0.00021413,-0.00027260,-0.00047681,0.00250083,-0.00042792,0.01794771,0.01544472
,-0.00928246,-0.00702449,-0.00024725,-0.01741176,0.00010218,-0.00097781,-0.00063
499,0.00156073,-0.00279197,0.00013846,-0.04140425,-0.10971449,0.01887813,-0.0143
6169,-0.00758271,0.00404380,-0.02048845,-0.01138876,0.01012062,-0.04948122,0.533
70715,-0.00022187,0.00084093,-0.00009291,0.00141173,0.00027784,-0.00424748,0.009
64898,-0.00042133,-0.00453829,-0.00251209,-0.02383241,-0.00014238,0.00035149,-0.
00044852,-0.00047914,0.00017746,-0.00015979,0.00149804,0.03919195,0.02343170,-0.
09585517,0.02383736,0.01129646,-0.00684160,-0.01865138,-0.01028900,0.00804298,-0
.01829748,-0.01083039,0.50349635,-0.00027639,0.00001847,0.00016057,0.00032572,0.
00018817,-0.00028884,-0.00274258,-0.00390096,0.00237835,-0.00103089,-0.00068196,
-0.00129664,-0.00004591,0.00036320,0.00021505,-0.00057857,0.00061437,-0.00034523
,-0.01552191,0.01692732,0.00358956,0.00085079,0.00002880,0.00025601,0.00012635,0
.00024295,-0.00041252,-0.18137078,0.13040558,0.04523399,0.19594902,-0.00009643,0
.00023397,0.00008068,0.00027517,0.00066649,-0.00071952,-0.00248805,-0.00208131,0
.00154276,-0.00234083,-0.00144156,-0.00188184,0.00007669,0.00012250,0.00014534,-
0.00037226,0.00060844,0.00006815,-0.01341986,0.01200586,0.00348756,0.00056940,0.
00054490,-0.00008219,0.00035130,0.00074421,-0.00024435,0.12999303,-0.17484057,-0
.04307469,-0.13700416,0.18486102,0.00019791,-0.00021012,-0.00022497,0.00030807,0
.00047893,-0.00083089,0.00145953,0.00190696,-0.00045334,-0.00268622,-0.00221781,
-0.00199725,-0.00006933,-0.00025153,0.00011029,0.00002224,-0.00017215,0.00025405
,0.00722616,-0.00783868,-0.00292986,-0.00014141,-0.00051513,-0.00005147,-0.00059
348,0.00007786,0.00038641,0.04507062,-0.04311885,-0.05502839,-0.04819807,0.04807
145,0.06114381,-0.00015155,0.00008718,0.00005725,0.00007877,0.00012421,-0.000287
01,0.00171431,-0.00025180,0.00036259,-0.00003615,-0.00087081,0.00026566,0.000114
49,-0.00010898,-0.00009163,-0.00008802,0.00010622,0.00001599,0.00483028,-0.01426
508,0.02511094,-0.00452871,-0.00246412,0.00205840,0.00127119,0.00051638,-0.00034
488,-0.05553081,0.02964852,-0.05548421,-0.00466872,0.00873402,-0.01830792,0.0636
0654,0.00007538,0.00008688,-0.00024862,0.00034119,-0.00015899,-0.00074185,0.0007
1364,0.00002478,-0.00082169,0.00073610,-0.00279508,0.00198725,0.00015301,-0.0001
3626,0.00005518,-0.00016608,0.00012201,0.00018652,0.00292958,-0.00739629,0.01301
593,-0.00316396,-0.00061785,0.00077206,0.00041364,-0.00004154,0.00000410,0.02655
120,-0.10015747,0.10240203,0.00420258,-0.00935288,0.01877896,-0.02697849,0.11073
478,-0.00003444,-0.00051133,-0.00008198,0.00034773,0.00003985,-0.00087279,-0.000
73875,0.00069897,-0.00018196,-0.00023985,-0.00281534,0.00130188,-0.00017670,0.00
008906,0.00013014,0.00006556,-0.00012884,0.00006044,-0.00144542,0.00495990,-0.00
859731,0.00192103,0.00085272,0.00049400,0.00010832,-0.00032979,0.00085015,-0.053
70316,0.11021952,-0.23873441,0.00237162,-0.00421781,0.00677648,0.05612963,-0.116
66410,0.25489857,0.00034949,0.00040278,-0.00020738,0.00196126,0.01858870,-0.0013
1751,0.00051031,-0.00067425,-0.00090829,-0.09189553,0.01985064,0.03151560,0.0000
6141,-0.00037260,0.00043593,0.00003411,0.00051643,0.00058183,-0.01308127,-0.0151
5695,-0.01496762,0.00166400,0.00079085,-0.00039658,-0.00190433,-0.00141067,0.001
81158,-0.09218321,-0.02473058,-0.01696101,0.00853430,0.01714809,0.01388797,-0.00
507698,-0.00622347,-0.00610404,0.92008392,0.00014037,-0.00039404,-0.00004037,0.0
1804474,-0.01295505,-0.02200667,-0.00024205,0.00257038,0.00067924,0.02503178,-0.
12965669,-0.04705392,-0.00011388,-0.00036091,-0.00025789,0.00053307,-0.00052389,
-0.00055080,-0.00651738,-0.00852278,-0.00249682,0.00062814,0.00006084,-0.0009803
0,0.00042684,0.00092943,0.00075754,-0.01896389,-0.14034733,-0.04577893,-0.011258
45,-0.01487470,-0.01907293,0.00788892,0.01163321,0.00936663,0.17277852,0.4154048
0,0.00002626,-0.00043035,0.00033186,-0.00154906,-0.01445908,0.01309236,-0.002328
90,0.00164031,0.00121356,0.03524092,-0.03627858,-0.15906887,-0.00029755,-0.00002
450,-0.00066366,0.00093727,-0.00068634,-0.00106315,0.00086784,0.01160089,0.01555
006,0.00062757,0.00118803,-0.00031304,0.00510380,0.00276068,-0.00093196,-0.01363
341,-0.04804001,-0.12932812,-0.00294446,-0.00388724,-0.00915337,-0.01063340,-0.0
2050504,-0.01962606,-0.13749826,0.09519070,0.40260291,-0.00030197,-0.00010256,0.
00019817,-0.00071516,-0.01032241,0.00610370,0.00075523,-0.00072329,-0.00001890,-
0.04806534,0.00214523,0.03365970,0.00001103,0.00021301,-0.00039532,-0.00006262,0
.00006880,-0.00010491,0.00159170,-0.00336471,-0.00611636,-0.00041312,-0.00014195
,0.00053063,-0.00255650,-0.00125719,0.00088931,-0.03729466,-0.02468745,-0.007011
86,0.00030113,-0.00142080,0.00149827,-0.00027597,-0.00039384,0.00140152,-0.72952
122,-0.18378392,0.10945799,0.81665912,-0.00014353,0.00015008,0.00004113,-0.00215
793,-0.00245245,0.00292153,0.00060781,-0.00130163,-0.00029850,0.00866561,0.02716
167,-0.00265236,0.00006592,0.00015156,0.00002856,-0.00025185,0.00035337,0.000380
56,-0.00221444,-0.00128334,-0.00539090,0.00016151,0.00005443,0.00035293,-0.00162
860,-0.00089848,0.00051113,-0.04185952,-0.00141802,-0.00407177,0.00016913,0.0032
7328,0.00445323,-0.00330110,-0.00188189,-0.00148974,-0.17556567,-0.13546856,0.01
016678,0.21372395,0.11633321,-0.00004032,0.00030373,-0.00010699,0.00258457,0.006
63295,-0.00681595,0.00074413,-0.00081671,-0.00023547,0.04506776,-0.00488056,0.00
358662,0.00013572,0.00005389,0.00026609,-0.00033361,0.00026048,0.00034153,-0.000
47101,-0.00327092,-0.00460295,-0.00011699,-0.00021719,0.00018037,-0.00143998,-0.
00077806,0.00045662,-0.02416860,-0.01257440,0.02042252,-0.00090701,0.00073647,0.
00124977,0.00112904,0.00167288,0.00232494,0.12071174,0.01821302,-0.10163793,-0.1
3902615,-0.00158381,0.08375637,-0.00000461,-0.00002139,-0.00010772,0.00663197,0.
00755742,-0.00541661,-0.00088643,-0.00072655,-0.00122426,-0.05582025,-0.05096193
,0.07567565,-0.00010294,0.00019818,0.00013399,-0.00062089,-0.00019192,-0.0002951
4,-0.00000820,0.00010817,0.00009707,0.00004145,-0.00008794,-0.00003124,-0.000074
42,0.00012886,0.00003030,-0.00069998,0.00105259,-0.00040529,-0.00001200,0.000104
98,0.00021907,-0.00006599,-0.00025754,-0.00010664,-0.00166428,-0.00856699,0.0124
7050,-0.00140881,0.00284224,-0.00073746,0.05422430,0.00003375,-0.00005672,0.0000
2745,-0.00800717,-0.01168457,0.02335511,-0.00079651,-0.00052655,-0.00056527,-0.0
4265439,-0.14510212,0.12373817,0.00004833,-0.00007767,0.00005240,-0.00039944,-0.
00005124,-0.00051687,-0.00043050,-0.00007950,-0.00080365,-0.00017734,-0.00042758
,-0.00025624,-0.00012890,-0.00005528,0.00011935,0.00037788,-0.00159388,0.0013962
8,-0.00007800,-0.00021561,-0.00004529,0.00003597,0.00025141,0.00039569,0.0004694
9,0.01270588,-0.00794061,0.00417362,-0.00210384,-0.00075437,0.04634355,0.1524416
3,-0.00001666,-0.00013897,-0.00002664,0.00246197,-0.00184226,0.00212145,-0.00002
069,0.00018622,-0.00036055,0.07209692,0.13195562,-0.22610541,-0.00017429,0.00023
909,0.00003178,0.00018158,0.00009941,0.00045625,-0.00001498,-0.00022236,-0.00058
191,-0.00010236,-0.00052508,0.00009328,-0.00007874,-0.00005580,0.00020480,0.0006
4124,-0.00155540,0.00057968,-0.00014848,-0.00025174,-0.00002809,0.00006287,0.000
31279,0.00039031,0.00167304,0.01492112,-0.00702957,0.00323906,-0.00207642,-0.002
00875,-0.07978942,-0.13932666,0.22920816,-0.00015182,-0.00000883,-0.00003622,-0.
12612293,0.07379653,0.12635771,-0.00021393,-0.00006697,-0.00002958,0.00261616,-0
.00143280,0.00691518,-0.00005858,0.00016169,-0.00002190,0.00016640,-0.00007650,0
.00000404,-0.00009344,-0.00013165,-0.00000987,0.00000795,0.00003478,-0.00002462,
-0.00000424,0.00000486,-0.00000002,-0.00177129,0.00072886,0.00039652,0.00015247,
0.00032336,0.00038678,0.00000224,-0.00002645,0.00004328,0.00871951,0.00430108,0.
00609533,0.00116014,-0.00074948,-0.00302077,-0.00499446,-0.00110670,-0.00323415,
0.11846987,-0.00008044,0.00011079,-0.00004198,0.06956339,-0.09722509,-0.09423370
,0.00009995,-0.00012447,-0.00004033,0.01635244,-0.00873837,-0.02103769,-0.000048
32,0.00010251,0.00006085,0.00007699,-0.00002567,0.00006309,0.00008536,0.00002284
,-0.00004503,-0.00002696,0.00002277,0.00001867,-0.00008728,-0.00000913,0.0000199
3,-0.00003512,0.00029883,-0.00084590,-0.00000003,-0.00003964,-0.00003474,-0.0000
6500,-0.00020023,-0.00017093,-0.00021560,-0.00186562,0.00523918,0.00222635,0.000
54640,-0.00176154,-0.00126772,0.00026824,-0.00121977,-0.07610813,0.10735139,0.00
001601,0.00009946,-0.00014638,0.12751362,-0.09904357,-0.21630852,-0.00001308,0.0
0000212,-0.00009803,-0.00132203,0.00288323,0.00661261,-0.00001197,0.00004452,0.0
0016694,0.00005767,-0.00007157,0.00011673,-0.00002678,-0.00009343,0.00001131,-0.
00000361,0.00001115,-0.00001665,0.00000413,0.00001760,0.00000694,-0.00101927,0.0
0047767,0.00027089,0.00009100,0.00020711,0.00022890,0.00002829,0.00000958,0.0000
5560,0.00431538,0.00269446,0.00368435,0.00017540,-0.00038128,-0.00119576,-0.0029
9259,-0.00059103,-0.00092443,-0.13602667,0.09105219,0.22385224,-0.15277663,0.044
06678,0.05252518,0.00007817,0.00043885,-0.00003685,-0.09118164,0.03369554,-0.028
29389,-0.00051382,-0.00021813,-0.00068741,-0.00752613,-0.00218713,0.02427665,0.0
0164794,-0.00515085,0.01231640,-0.00486231,0.01317276,-0.01586871,-0.00256779,0.
00311823,0.00120870,0.00052125,-0.00007893,0.00032071,0.00131917,0.00025781,-0.0
0091158,0.00027559,-0.00002804,-0.00011987,-0.00057218,0.00032756,0.00013228,-0.
00021362,0.00063451,0.00061415,-0.00010856,-0.00025848,-0.00025962,-0.00009713,0
.00003241,0.00001843,0.00002300,-0.00003155,0.00006226,0.51067230,0.05133635,-0.
10843766,-0.03486680,-0.00074042,-0.00027540,-0.00044993,0.02656886,-0.15071061,
0.06443162,-0.00010942,-0.00037033,-0.00012405,-0.00228467,0.00472214,0.00493143
,-0.00485301,-0.00188801,0.01953144,0.00386958,-0.01019903,0.00991895,0.00150081
,-0.00009859,-0.00081982,-0.00052306,0.00022175,-0.00019414,0.00026155,0.0000200
2,-0.00018635,-0.00014580,-0.00022320,0.00031177,0.00046308,0.00004316,0.0003999
7,-0.00037631,-0.00020582,-0.00041734,0.00026057,0.00016945,0.00004671,0.0000874
7,0.00004136,0.00006512,-0.00000861,-0.00001210,-0.00000099,0.05296103,0.4953419
5,0.04066237,-0.02240172,-0.10446238,-0.00080157,0.00006692,-0.00023462,-0.01647
495,0.05098585,-0.12036375,-0.00070883,-0.00049915,-0.00076176,0.02042486,0.0084
3988,-0.03618036,0.01560812,0.01473338,-0.03883374,-0.00075978,-0.00464984,0.009
48172,0.00240122,-0.00182377,0.00036541,-0.00039646,0.00004748,-0.00064438,0.000
36083,-0.00045359,0.00032610,0.00023434,-0.00007051,0.00018912,0.00009059,-0.000
09533,0.00032230,-0.00015197,-0.00064174,-0.00067812,0.00026239,0.00025273,0.000
21707,0.00009348,0.00002618,-0.00005604,0.00008955,0.00006664,0.00001345,-0.0242
4730,-0.00897525,0.57404760,0.00809195,0.00740760,0.02168055,-0.00021033,0.00013
002,0.00004755,-0.00332817,-0.00471941,-0.00798626,-0.00011981,-0.00007862,-0.00
014105,-0.00323411,0.00026251,0.00181589,-0.00039954,0.00298046,0.00003576,0.000
42309,0.00014199,0.00007502,0.00013834,0.00006912,0.00011803,-0.00002482,0.00020
900,0.00001197,0.00012412,-0.00002783,0.00009838,0.00002343,0.00000176,0.0000655
3,-0.00021813,-0.00003144,-0.00000332,0.00021440,-0.00048300,-0.00039140,0.00002
482,0.00015625,0.00016060,0.00000519,-0.00000052,0.00000985,0.00000404,0.0000141
0,0.00001889,-0.06329576,-0.02660090,-0.07402179,0.06915129,-0.00622534,-0.00492
691,-0.01222798,-0.00021077,0.00001299,-0.00007733,0.00658805,0.00977312,0.02179
387,-0.00006592,-0.00019228,0.00000083,0.00341509,-0.00080929,-0.00012340,-0.000
23008,-0.00352067,0.00202998,-0.00033910,0.00024504,-0.00084610,-0.00042700,-0.0
0004899,-0.00014815,0.00010913,-0.00026488,-0.00001099,-0.00001069,0.00015397,-0
.00014355,-0.00001419,-0.00001063,0.00001498,0.00003864,0.00002579,0.00004720,0.
00011956,-0.00005554,-0.00008430,-0.00009594,-0.00002094,0.00004777,-0.00002348,
0.00000264,-0.00001686,0.00002123,0.00000747,0.00003083,-0.02683168,-0.07214757,
-0.08344392,0.03061391,0.07797164,-0.00440074,-0.00302921,-0.01148833,0.00004145
,0.00006094,-0.00000216,-0.00351865,-0.00652506,-0.01434889,0.00004082,0.0000626
1,0.00006010,0.00043649,-0.00037369,-0.00094252,-0.00021989,0.00090949,-0.001251
11,0.00054300,-0.00017052,0.00024204,0.00015218,0.00016138,0.00009328,-0.0001812
0,0.00034050,0.00017717,-0.00009376,0.00010466,0.00013388,-0.00003771,0.00000145
,-0.00002619,-0.00018868,-0.00001223,-0.00011736,0.00012410,-0.00006275,-0.00007
144,-0.00003869,0.00002100,0.00003998,0.00003644,-0.00000250,0.00002690,0.000005
63,0.00001546,0.00001525,-0.07753507,-0.08720830,-0.24697996,0.08023703,0.090858
09,0.26821068,-0.01544539,-0.01560872,0.00386320,-0.00093689,-0.00034483,-0.0012
6185,0.01035777,0.00711509,-0.00127238,-0.00060029,-0.00032386,-0.00062171,-0.00
166870,0.00215616,0.00218683,-0.00204904,0.00126489,-0.00208340,-0.00009534,-0.0
0029217,0.00021262,-0.00004310,-0.00023839,-0.00009250,0.00007635,-0.00012371,-0
.00002521,-0.00072110,0.00058729,0.00031463,0.00001591,-0.00005556,-0.00005416,-
0.00049113,0.00076697,0.00005123,-0.00036672,0.00011795,-0.00049790,0.00004139,-
0.00001180,0.00005894,0.00003474,-0.00000865,0.00003903,0.00003058,-0.00000036,0
.00007337,-0.19089439,-0.12827522,0.03848946,-0.00657216,-0.00562658,0.00248723,
0.20804751,0.01169189,0.01153295,-0.00239231,-0.00064339,0.00049045,-0.00152063,
-0.01741253,-0.01217691,0.00295989,-0.00014047,-0.00068578,0.00006972,0.00126282
,-0.00215471,-0.00264690,0.00236864,-0.00219443,0.00235813,-0.00008326,0.0004153
9,0.00089648,0.00021695,0.00020347,0.00003486,-0.00017074,0.00022916,0.00001868,
0.00010098,-0.00019504,0.00008772,-0.00015684,0.00022986,-0.00030441,0.00072350,
-0.00036490,-0.00069783,0.00073870,0.00059435,0.00082148,-0.00020504,-0.00026237
,-0.00020169,-0.00002160,-0.00006607,-0.00006202,0.00002166,-0.00007648,0.000083
26,-0.12811377,-0.15383599,0.03511899,-0.00782096,-0.00643082,0.00263541,0.13866
786,0.16450886,0.00991833,0.00924673,-0.00431815,-0.00060992,-0.00039420,-0.0014
4128,0.01398204,0.00923293,-0.00414282,-0.00027659,0.00009884,-0.00060228,0.0013
8211,-0.00006910,-0.00095184,-0.00027947,0.00149166,-0.00155705,0.00012750,-0.00
060586,-0.00023066,-0.00007129,-0.00002958,-0.00005968,0.00007199,-0.00014800,0.
00011622,-0.00009962,-0.00011531,0.00018705,-0.00001739,-0.00008753,-0.00002061,
0.00017418,-0.00031392,0.00013698,-0.00077513,0.00060313,0.00055134,0.00023096,-
0.00012750,-0.00032399,-0.00001345,-0.00001741,0.00001103,-0.00002494,-0.0000207
5,-0.00006630,0.04151786,0.03830639,-0.04500026,-0.02070308,-0.01767464,0.005526
04,-0.04241162,-0.03767312,0.05410956,0.00006059,-0.00007375,-0.00033257,-0.0347
8124,-0.01024587,0.02868990,0.00001639,-0.00006482,0.00030222,0.00813768,0.00092
252,-0.00508996,0.00014030,-0.00006037,0.00005413,-0.00013864,-0.00011027,0.0001
1532,0.00001075,0.00004376,-0.00002228,0.00000150,-0.00002297,-0.00000399,-0.000
01315,-0.00000189,-0.00000476,0.00112984,-0.00066050,-0.00004496,-0.00012715,-0.
00023566,-0.00021578,-0.00002834,0.00006624,-0.00000625,-0.00637296,-0.00112314,
-0.00222841,0.00029987,0.00200540,0.00016602,0.00556700,0.00229271,0.00315785,0.
00211137,-0.01038955,0.00910036,-0.00027357,-0.00019529,0.00013114,-0.00001784,0
.00000219,-0.00002141,-0.00039047,-0.00013672,-0.00012851,0.02440365,0.00001904,
-0.00014712,-0.00011143,-0.01276379,-0.09200610,0.06847016,-0.00015550,-0.000410
79,0.00059711,-0.00666065,-0.02717347,0.03247971,0.00034542,-0.00021933,-0.00010
685,-0.00045655,-0.00045239,-0.00025386,0.00013966,0.00017389,-0.00002608,-0.000
03946,0.00017682,-0.00001068,-0.00017968,-0.00002568,-0.00005764,0.00090674,-0.0
0076055,0.00002220,-0.00007674,-0.00025291,-0.00028051,-0.00002697,0.00012745,-0
.00003498,-0.00626152,0.00140019,0.00421837,0.00334020,-0.00120235,-0.00114032,0
.00395130,-0.00365825,-0.00034928,0.00028603,-0.00039310,0.00252816,-0.00044574,
0.00005142,0.00039112,0.00005247,0.00005985,-0.00005820,-0.00003090,-0.00035020,
-0.00033606,0.01812262,0.12473823,0.00054668,-0.00015281,-0.00064590,0.02897057,
0.06435631,-0.12263320,0.00042897,0.00067860,-0.00080003,0.00084581,0.02035332,-
0.00792233,-0.00017090,-0.00017291,0.00058872,0.00004300,0.00054409,0.00083813,-
0.00011016,-0.00023506,0.00007549,0.00003126,-0.00023185,0.00000733,0.00016803,0
.00004082,0.00004261,-0.00082653,0.00063956,0.00019822,0.00011701,0.00028163,0.0
0028530,0.00008830,0.00024165,0.00025426,0.00437340,-0.00366884,-0.00756316,-0.0
0493764,-0.00096388,0.00418011,0.00226083,0.00161886,0.00398532,0.00217262,0.022
94285,-0.01623048,0.00007334,-0.00017510,-0.00027423,-0.00011892,-0.00010883,0.0
0004686,-0.00020853,0.00020166,0.00025493,-0.03379179,-0.10580165,0.14509754,-0.
11945735,0.07303040,-0.02122276,0.00001453,0.00004537,0.00007059,-0.00311461,0.0
0070884,0.00265326,0.00001141,-0.00007490,-0.00002442,0.00811922,-0.00079671,0.0
0233746,0.00381455,0.00276618,0.00338086,0.00055275,0.00093293,-0.00070031,-0.00
012056,0.00023557,-0.00000109,0.00005856,0.00001699,-0.00008315,0.00019137,-0.00
018239,0.00003647,0.00002388,0.00002259,-0.00004026,0.00003560,-0.00001853,-0.00
001667,-0.00005579,0.00007828,0.00014203,0.00005640,-0.00002028,-0.00006048,-0.0
0001969,-0.00000960,-0.00002373,-0.00000074,-0.00001507,-0.00004878,-0.00839947,
0.01682989,-0.00981306,0.00040312,0.00005669,-0.00003578,0.00079139,-0.00042703,
-0.00050138,-0.00005178,-0.00003701,-0.00002957,0.56127168,0.07104880,-0.1905983
5,0.05157968,0.00015340,0.00031143,-0.00030922,0.00043679,-0.00073506,-0.0004809
2,-0.00000488,-0.00021305,0.00004872,0.01089416,-0.00942375,0.00762791,0.0019018
4,0.00342668,0.00364521,0.00039798,0.00045634,0.00082880,0.00012551,-0.00003578,
-0.00007527,-0.00015713,0.00015964,-0.00010726,0.00004392,-0.00004457,-0.0000562
9,-0.00002930,0.,-0.00000805,-0.00000499,0.00001894,-0.00001405,0.00006289,0.000
08704,0.00010917,-0.00004289,-0.00005477,-0.00004018,-0.00000137,-0.00003075,0.0
0000204,-0.00000267,0.00000632,0.00003774,0.00527006,-0.00784528,0.00215725,-0.0
0056467,0.00044268,0.00063297,-0.00027843,0.00020264,0.00030167,-0.00008418,-0.0
0024729,0.00026974,0.00490155,0.52497395,-0.01841455,0.04822730,-0.10546210,-0.0
0002621,-0.00006711,0.00000199,0.00251384,-0.00041282,-0.00440966,0.00003554,0.0
0007951,0.00003036,-0.01277923,0.02453632,-0.00397491,0.00361986,0.00323809,-0.0
0091280,0.00063242,-0.00053234,0.00170653,0.00046233,-0.00033400,-0.00004946,-0.
00027749,0.00027435,0.00004900,-0.00011267,-0.00003462,-0.00000011,-0.00000324,-
0.00001333,0.00004073,-0.00008399,0.00001651,0.00005723,-0.00002365,-0.00003884,
-0.00007410,-0.00000865,0.00001587,0.00001677,0.00001548,-0.00000256,0.00001207,
0.00001497,-0.00001415,0.00000415,0.00562319,-0.01446260,0.01136297,-0.00039734,
0.00004633,-0.00008618,0.00015692,0.00021750,0.00002224,-0.00001841,0.00002480,0
.00003235,-0.02710207,0.01464233,0.56811867,0.01340909,0.01379732,-0.00186092,-0
.00000811,0.00015156,-0.00021395,0.00001228,0.00043676,-0.00070953,0.00001293,-0
.00002215,0.00006686,-0.00076765,0.00060652,-0.00090162,-0.00056073,-0.00010475,
-0.00027714,-0.00003097,-0.00017264,0.00000510,0.00000620,-0.00001172,0.00000521
,-0.00002517,0.00001563,0.00003343,-0.00002126,0.00004029,-0.00004167,-0.0000151
4,-0.00001660,0.00001134,-0.00000582,-0.00000513,0.00001518,-0.00000996,0.000085
80,0.00007831,0.00000811,-0.00004649,-0.00003336,0.00000358,-0.00001829,-0.00000
369,-0.00000780,-0.00003353,0.00001125,0.00036688,-0.00077466,0.00060708,0.00008
310,-0.00004075,-0.00003717,-0.00011125,0.00018590,0.00003606,0.00029322,-0.0000
5839,0.00015145,-0.16117657,-0.13024249,0.02263006,0.16892469,-0.01543993,-0.019
78662,0.00648355,-0.00008975,-0.00032033,0.00036164,0.00002854,-0.00064946,0.000
90739,-0.00003920,0.00009572,-0.00003127,0.00137232,-0.00071165,-0.00121262,0.00
132713,0.00027896,0.00029970,-0.00000323,0.00013994,-0.00015602,0.00004270,0.000
00630,0.,0.00012964,-0.00008279,-0.00006518,0.00001721,-0.00012329,0.00014246,0.
00006663,0.00003731,-0.00002620,-0.00000866,0.00000860,-0.00001590,-0.00009231,-
0.00016663,-0.00015549,0.00009095,0.00010052,0.00006370,-0.00001661,0.00002062,-
0.00002327,0.00002898,0.00000716,0.00000340,-0.00030301,0.00082481,-0.00016039,-
0.00012034,0.00014399,0.00012270,0.00060675,-0.00022282,-0.00022196,-0.00011122,
0.00020687,-0.00032534,-0.13277677,-0.19636118,0.02297986,0.14063525,0.21283418,
0.00767106,0.01108741,-0.00413369,-0.00007088,0.00019950,-0.00012680,0.00005430,
-0.00014864,0.00004367,0.00002790,-0.00010443,-0.00004543,-0.00135794,0.00103607
,0.00047965,-0.00073285,-0.00041673,-0.00073914,0.00001813,0.00006764,0.00007031
,-0.00001994,0.00000515,-0.00000348,-0.00004212,0.00001449,0.00001738,0.00001560
,0.00000695,-0.00004359,-0.00002214,-0.00001257,-0.00000550,0.00000588,-0.000002
05,-0.00000652,-0.00001231,0.00010924,0.00014685,0.00000679,-0.00005313,-0.00006
875,0.00000769,-0.00000059,0.00000956,-0.00004197,0.00002345,-0.00005486,0.00023
858,-0.00027330,-0.00013273,-0.00004185,-0.00010790,0.00010566,-0.00007493,-0.00
007068,0.00027237,0.00015486,-0.00013533,0.00001616,0.02346559,0.02292200,-0.047
26734,-0.02234596,-0.02899276,0.04868127,-0.01110124,0.00285824,0.00985557,-0.00
002876,-0.00000446,0.00007244,-0.00040188,0.00027740,0.00063872,0.00001654,-0.00
002006,-0.00004477,0.00099401,-0.00133116,-0.00006967,-0.00024123,-0.00004821,-0
.00005641,0.00012924,0.00015786,-0.00024001,-0.00009267,0.00007597,0.00000264,-0
.00002276,0.00001790,0.00002749,0.00003329,0.00000866,-0.00003184,-0.00002916,-0
.00000140,-0.00000500,0.00002559,-0.00001611,-0.00002168,0.00010411,0.00006332,0
.00007324,-0.00007913,-0.00003897,-0.00002431,0.00000752,0.00000811,0.00001760,-
0.00001501,0.00002195,-0.00001038,0.00055882,0.00209195,-0.00183358,-0.00009387,
0.00013650,0.00019200,0.00036958,-0.00024789,-0.00015781,-0.00001372,-0.00001312
,-0.00004879,-0.18896367,0.05863217,0.12655601,-0.01218433,0.00767283,0.01133037
,0.19985615,0.01949759,-0.00794793,-0.01940081,-0.00000457,-0.00009248,0.0000818
3,0.00112613,-0.00032386,-0.00086080,0.00000611,0.00004458,-0.00000677,-0.000822
77,0.00120031,-0.00084450,-0.00004760,-0.00003740,-0.00022044,-0.00000365,-0.000
16207,0.00045696,0.00014004,-0.00012039,-0.00000542,-0.00000378,0.00000389,-0.00
001851,-0.00003920,-0.00002705,0.00004020,0.00002844,0.00000460,0.00000325,-0.00
003186,0.00001656,0.00002006,-0.00009982,-0.00007814,-0.00007126,0.00007522,0.00
004439,0.00001967,-0.00000756,0.00000556,-0.00000972,-0.00000110,0.00000793,-0.0
0001119,0.00134984,-0.00278714,0.00339656,-0.00033545,0.00018874,0.00011200,0.00
017325,0.00001247,-0.00005288,0.00000332,0.00006014,-0.00005319,0.05745122,-0.07
012875,-0.05042899,-0.01601499,0.00832751,0.01595237,-0.06625169,0.07444061,-0.0
1063592,0.00373696,0.00869139,0.00001112,0.00002016,-0.00001021,-0.00040216,0.00
040014,0.00031209,0.00000687,-0.00000737,0.00000107,-0.00081369,0.00001477,0.000
84105,-0.00003662,-0.00023247,0.00005793,0.00000548,0.00012467,-0.00009122,-0.00
002457,0.00002303,0.00000156,0.00001068,-0.00000104,-0.00000215,0.00001793,-0.00
000865,-0.00000631,0.00000472,-0.00000097,-0.00000177,-0.00000011,0.00000150,0.0
0000175,-0.00003149,0.00000180,0.00000772,0.00002363,-0.00000068,-0.00000433,-0.
00000623,-0.00000083,-0.00000433,-0.00000709,-0.00000621,-0.00000414,-0.00066833
,0.00198191,-0.00025238,-0.00015719,0.00022949,0.00012044,0.00011440,-0.00005678
,-0.00014096,0.00000660,-0.00000865,0.00001432,0.12796792,-0.05204080,-0.1603521
4,0.00016090,-0.00099848,-0.00189762,-0.13634855,0.05376960,0.16701537,-0.004942
25,-0.00251571,-0.01251994,-0.00001112,0.00005044,-0.00007917,-0.00014932,0.0005
8012,-0.00091307,0.00000076,-0.00000412,0.00002499,-0.00031697,-0.00001370,0.000
50569,-0.00028879,0.00035777,0.00047610,0.00022541,0.00001442,0.00026959,0.00001
422,-0.00002106,-0.00000844,-0.00013013,0.00012027,0.00005089,-0.00001273,0.0000
5440,-0.00006323,-0.00003732,-0.00001055,0.00001742,-0.00000095,-0.00000857,0.00
000498,0.00012234,0.00002199,-0.00001252,-0.00010100,-0.00003200,0.00001372,0.00
001967,-0.00000475,0.00002397,0.00001005,-0.00000013,0.00003091,0.00039695,-0.00
033955,0.00052874,-0.00016078,0.00031083,0.00011139,0.00007910,-0.00003967,-0.00
015249,0.00000074,-0.00002936,0.00005438,-0.09268611,-0.02038768,-0.10019810,-0.
00819679,-0.00296265,-0.01854347,0.01108127,0.00413683,0.02037936,0.09513071,0.0
1127356,0.00492229,0.02809591,-0.00002050,-0.00010611,0.00009171,-0.00003845,-0.
00048359,0.00086439,-0.00003464,0.00002654,0.00000308,0.00127700,-0.00184549,-0.
00041112,-0.00041425,-0.00128780,-0.00049067,-0.00017996,-0.00000306,-0.00028071
,-0.00003211,0.00001721,0.00002434,0.00012529,-0.00010630,-0.00003388,0.00000789
,-0.00003777,0.00005303,0.00003582,0.00001356,-0.00001131,0.00000045,0.00001103,
-0.00000243,-0.00006943,-0.00006249,-0.00006870,0.00006137,0.00004001,0.00002929
,-0.00001232,0.00000606,-0.00001840,0.00001778,-0.00001716,0.00001315,-0.0006446
8,0.00095704,-0.00060168,0.00021152,-0.00011385,-0.00020041,-0.00009153,0.000079
31,-0.00002194,0.00001102,0.00010244,-0.00008750,-0.01952048,-0.05359275,-0.0468
5395,-0.00859250,-0.00422412,-0.02150092,-0.00442358,-0.00261247,-0.00659922,0.0
2053865,0.05817539,-0.00271745,0.00150801,-0.00986165,0.00000073,0.00005219,-0.0
0008182,-0.00000528,0.00009983,0.00000052,-0.00000339,-0.00002432,0.00002408,-0.
00164098,0.00021924,0.00111749,0.00039377,0.00072447,0.00037743,0.00000488,-0.00
003423,0.00011278,-0.00001235,0.00000742,-0.00001496,-0.00007182,0.00006341,-0.0
0000024,-0.00001333,0.00006623,-0.00004180,-0.00004033,-0.00001098,0.00001337,0.
00001415,-0.00001403,-0.00000501,0.00012992,0.00003246,0.00001166,-0.00010115,-0
.00002984,0.00000459,0.00002068,-0.00000524,0.00001819,0.00001359,0.00000433,0.0
0002117,0.00022067,0.00000754,-0.00019943,-0.00016461,0.00017825,0.00038219,0.00
006091,0.00001286,0.00004523,-0.00001488,-0.00003794,0.00004608,-0.09892014,-0.0
4902505,-0.25903511,0.00261752,0.00122524,0.00432777,-0.00937341,-0.00253084,-0.
01427577,0.11000543,0.04775643,0.27712611,-0.00210704,0.00391287,0.00034256,0.00
002561,-0.00010405,0.00004059,0.00689111,-0.01100418,0.01280998,0.00016324,0.000
11271,0.00008974,0.00407363,0.00736138,-0.01578689,-0.05155614,0.02128213,-0.008
39487,-0.00095123,-0.00339429,-0.00160956,-0.00015534,0.00048658,-0.00054552,0.0
0047464,-0.00026651,-0.00036590,-0.00018198,0.00024160,0.00004809,-0.00005175,-0
.00004643,0.00004355,0.00003725,0.00004193,-0.00002304,-0.00011212,0.00009850,0.
00010008,0.00008859,-0.00002538,-0.00004929,-0.00005566,-0.00001934,-0.00006271,
0.00000440,-0.00000397,-0.00001052,0.00265904,0.00463584,0.00578078,0.00034633,-
0.00166206,0.00104752,-0.00033128,0.00048896,-0.00060750,0.00003066,0.00012203,-
0.00009630,0.00074968,0.00035619,-0.00063434,-0.00014436,0.00029899,-0.00012436,
0.00002604,-0.00007618,0.00004470,-0.00004655,0.00010925,-0.00010783,0.04006417,
0.00292743,-0.00198881,0.00072276,0.00003225,-0.00017091,0.00006957,0.00241958,0
.00489397,-0.00319858,0.00023075,0.00007535,0.00007753,-0.00475168,-0.00483144,0
.01417529,0.01977829,-0.16302942,0.14667189,-0.00234967,-0.00206882,-0.00186747,
-0.00029287,0.00029987,0.00011692,0.00042173,-0.00019304,-0.00032107,-0.00017995
,0.00028893,0.00018899,-0.00009661,-0.00007239,0.00005164,0.00001163,-0.00001234
,-0.00000437,-0.00006234,0.00024124,0.00018931,0.00004050,-0.00008579,-0.0000870
3,-0.00018958,-0.00001274,-0.00005433,0.00001637,-0.00002578,0.00002451,0.004864
67,0.00403382,0.00281247,0.00005603,-0.00114710,0.00088705,-0.00064587,0.0009238
2,-0.00078901,0.00003671,0.00016429,-0.00015341,-0.00018986,0.00018575,0.0008124
5,0.00003099,-0.00012150,0.00010142,-0.00000275,0.00003738,-0.00005035,0.0001592
4,-0.00027432,0.00013771,-0.02191225,0.16265229,0.00146186,-0.00046567,0.0001338
6,0.00004091,0.00005141,-0.00003872,-0.00602342,0.01631819,-0.00913215,0.0000647
7,0.00003265,-0.00000628,0.00150320,-0.00389145,0.00370623,-0.00763646,0.1457207
1,-0.22829972,-0.00256652,-0.00140577,-0.00035140,0.00058271,-0.00040326,-0.0000
4124,0.00036697,-0.00018308,-0.00020933,0.00000397,0.00010042,0.00026043,-0.0000
1431,-0.00004046,0.00004132,-0.00013311,-0.00003714,0.00009257,-0.00007697,0.000
09451,0.00005171,0.00001068,-0.00004152,-0.00003818,0.00007846,0.00009571,-0.000
01862,-0.00001149,-0.00001715,-0.00000868,0.00556427,0.00301773,-0.00033790,0.00
011323,-0.00041864,0.00008922,-0.00060787,0.00100849,-0.00129082,0.00003025,-0.0
0000964,0.00007393,0.00010209,-0.00001434,0.00039838,-0.00004479,0.00004670,-0.0
0002339,-0.00004700,0.00004891,0.00000274,0.00005528,-0.00004340,0.00000626,0.00
771180,-0.15985970,0.23515805,0.00208329,0.00380993,-0.00062253,-0.00003721,0.00
007018,0.00002794,-0.00110342,0.00265378,0.00042741,0.00003646,-0.00007757,-0.00
010153,-0.18635929,0.05457394,0.14404693,-0.00506186,-0.00257926,0.01089208,0.00
021856,-0.00004876,0.00073472,0.00001079,-0.00001029,-0.00004923,-0.00021229,0.0
0016787,0.00006947,0.00006893,0.00012496,-0.00010859,-0.00007030,-0.00006376,0.0
0001702,0.00002320,-0.00002938,0.00002759,0.00009884,0.00017891,0.00017998,-0.00
009348,-0.00009231,-0.00008330,0.00000031,0.00002429,0.00004648,-0.00004395,-0.0
0003177,-0.00001285,0.00476388,0.00435996,0.00344434,-0.00135790,0.00039175,0.00
085343,0.00087292,-0.00084794,-0.00061085,0.00000530,-0.00005014,0.00001349,-0.0
0204782,-0.00242460,-0.00218067,0.00014583,-0.00035426,0.00043396,0.00006530,-0.
00024777,0.00037764,-0.00000039,0.00040482,-0.00029529,0.00005906,-0.00035275,-0
.00052851,0.18793525,-0.01005508,0.00842939,0.01022767,0.00002183,-0.00003849,0.
00007678,0.00356765,-0.00284518,0.00112247,0.00001720,0.00003813,-0.00000403,0.0
5545754,-0.06677359,-0.04039782,0.01007431,0.00145543,-0.01651735,0.00047494,0.0
0078473,-0.00072058,-0.00004863,0.00004454,0.00003043,0.00007221,-0.00006414,-0.
00008144,0.00027731,-0.00038006,-0.00004093,0.00015158,0.00005940,-0.00004133,-0
.00000085,0.00001111,0.00000788,-0.00015512,-0.00008918,-0.00007608,0.00012223,0
.00005604,0.00002620,-0.00002025,-0.00000104,-0.00003308,-0.00002331,0.00000017,
-0.00002706,0.00410190,0.00260981,0.00532143,-0.00152362,0.00066154,0.00071718,0
.00050037,-0.00040619,-0.00058258,0.00000970,0.00003793,-0.00003871,-0.00300789,
-0.00096006,-0.00191592,0.00016903,-0.00026211,0.00029335,0.00037657,-0.00007700
,-0.00029151,0.00002454,0.00041638,-0.00038314,-0.00103432,0.00023768,0.00029581
,-0.05954983,0.05705475,0.01771508,-0.00977772,-0.00781527,0.00000407,-0.0000248
6,-0.00001464,-0.00080906,0.00216417,-0.00010087,0.00000905,0.00001268,-0.000003
64,0.14297427,-0.03923543,-0.19050046,-0.00582044,0.00186559,0.00602085,-0.00009
620,0.00016835,0.00054081,0.00005510,-0.00006471,-0.00000840,-0.00006660,0.00007
600,0.00000229,0.00010049,-0.00003508,-0.00003645,0.00002415,-0.00002687,0.00003
213,-0.00003881,-0.00000093,0.00007580,-0.00012826,-0.00001305,-0.00004186,0.000
07143,0.00001587,-0.00000428,-0.00001358,0.00000390,-0.00000445,-0.00000591,-0.0
0001678,-0.00000628,0.00391592,0.00520339,-0.00093370,-0.00036149,0.00015496,0.0
0004446,0.00110330,-0.00089874,-0.00108628,0.00001530,0.00002748,0.00003167,-0.0
0153262,-0.00263379,-0.00022955,0.00004004,-0.00025145,0.00037819,-0.00045289,0.
00061397,-0.00002407,-0.00006242,0.00029489,-0.00011913,0.00035922,-0.00065419,-
0.00021828,-0.15699913,0.04303238,0.19402138\\0.00000022,-0.00000843,0.00001140,
-0.00001435,0.00001625,0.00002168,0.00000407,-0.00000142,-0.00000765,0.00000359,
-0.00000268,0.00000020,0.00000034,-0.00000447,-0.00000492,-0.00000131,-0.0000013
1,0.00000302,0.00000427,-0.00000123,0.00001340,0.00000165,0.00000645,-0.00001001
,0.00000403,-0.00000145,-0.00000367,-0.00000767,0.00001585,-0.00001039,0.0000099
3,-0.00000374,-0.00000482,0.00000350,0.00000009,0.00000869,-0.00001061,-0.000001
11,0.00000555,0.00000984,0.00000910,-0.00000607,-0.00000014,0.00000114,-0.000001
61,0.00000776,-0.00000787,-0.00001434,-0.00000078,-0.00000047,0.00000056,0.00000
250,0.00000109,0.00000064,-0.00000100,0.00000107,-0.00000242,-0.00000428,0.00000
259,-0.00000251,-0.00001272,-0.00000639,-0.00000259,0.00000140,0.00000179,-0.000
00358,-0.00000184,-0.00000759,0.00000179,-0.00000063,0.00000064,0.00000477,0.000
00336,-0.00000320,0.00000137,-0.00000113,-0.00000469,0.00000148\\\@
