1\1\GINC-NODE-003\Freq\RwB97XD\def2SVP\C7H14Cl1N1O1\JP2658\30-Dec-2023\0\\# wb97
xd def2svp scrf=(iefpcm,solvent=toluene) freq=noraman\\TS-898_opt_sqm_reopt.out\
\0,1\C,-0.58899,-0.47545,-0.15233\C,-1.83161,0.04201,0.3673\O,-1.95843,0.88104,1
.2668\C,0.65099,-0.02299,0.35312\C,0.6835,2.14256,-1.28313\H,1.01255,2.55046,-2.
24779\H,-0.36677,1.82174,-1.35233\H,0.76982,2.91494,-0.51029\N,1.47456,0.97608,-
0.90007\H,1.5853,0.32766,-1.68163\H,2.41489,1.21806,-0.58093\Cl,1.99896,-1.30275
,0.42947\C,0.76342,0.83856,1.58412\H,0.12773,1.72532,1.49149\H,0.38314,0.27589,2
.44639\H,1.81136,1.11116,1.77245\C,-0.61058,-1.43924,-1.32118\H,0.39358,-1.8345,
-1.52979\H,-1.24726,-2.31883,-1.13285\H,-0.98343,-0.97984,-2.25581\C,-3.10758,-0
.51532,-0.26415\H,-3.96803,-0.02149,0.20419\H,-3.13657,-0.34277,-1.35125\H,-3.18
784,-1.60271,-0.10946\\Version=ES64L-G16RevC.01\State=1-A\HF=-864.737844\RMSD=9.
939e-09\RMSF=4.973e-06\ZeroPoint=0.2048709\Thermal=0.2174156\ETot=-864.5204283\H
Tot=-864.5194841\GTot=-864.5713893\Dipole=1.951611,1.0947607,-1.9213039\DipoleDe
riv=-2.2124477,-0.0099592,0.3840818,-0.0439101,-0.5092115,0.084645,-0.1905576,0.
1134603,-0.4238459,2.0557632,-0.0263373,-0.267256,-0.5767852,0.6139204,0.7321355
,-0.6568734,0.6248136,0.87457,-0.9726051,0.041803,0.080193,0.4883501,-0.8576104,
-0.6271128,0.5598164,-0.5269696,-1.0651462,2.7480451,0.1819493,-0.1916907,0.4652
225,1.4163759,-0.495692,-0.2220244,-0.6355302,0.8701506,0.023752,-0.3284882,0.13
36253,0.0006203,0.3087177,-0.1039526,-0.0042413,0.0268166,0.1049637,0.0974041,0.
0381836,0.0414028,-0.006575,-0.0126126,0.075113,0.0518832,0.0998188,-0.0424429,0
.0261906,0.0596856,-0.0477332,-0.02761,0.1008492,-0.037502,-0.0173275,-0.0435946
,0.112314,0.0840455,0.0065527,-0.0405473,0.0125855,0.0186979,-0.0179049,-0.02849
57,-0.084413,0.0105601,-1.0162765,-0.2560835,0.2310713,-0.4821808,-0.8173519,0.3
534787,0.5838374,0.4941215,-0.5889072,0.2024681,0.0515355,-0.025254,0.0240084,0.
1682961,0.0095367,-0.0585455,-0.0157761,0.2258001,0.1705157,0.0369794,-0.0290017
,-0.006731,0.1563979,0.0117897,0.0817691,0.0303237,0.1923341,-0.9357744,0.420172
5,-0.1217178,0.3847074,-0.6538943,0.125296,0.0571073,0.0484956,-0.3088697,0.0119
284,0.0251677,0.0460216,0.0660558,-0.1655113,-0.0416573,0.0430035,0.0202887,-0.1
741874,0.1220332,0.0629398,0.008043,0.0205673,0.0007206,0.0011958,-0.0159636,-0.
0081058,0.0726795,0.0690263,-0.0261553,0.0286321,-0.0422757,0.041469,0.034326,-0
.0077218,0.0249857,0.0012624,-0.1223178,-0.0874453,-0.0656265,-0.0544132,0.06784
11,-0.0229916,0.0052239,-0.0181737,0.0619463,0.0170882,-0.0159856,-0.0084032,0.0
302542,0.1931967,-0.029255,0.0744488,-0.039034,0.1896908,-0.0830216,0.090459,0.0
89371,0.0134993,0.058591,-0.0166486,0.0268586,-0.0055419,0.0765358,0.0089395,-0.
1450737,-0.0223624,-0.1276251,-0.1037875,-0.041569,0.0101761,0.0125549,0.0065309
,0.031835,0.0113178,-0.0986141,0.0317984,-0.026378,0.0743331,-0.1021966,-0.03202
56,-0.1895374,-0.2934276,-0.1525273,-0.1632757,-0.1922234,-0.0130638,-0.0877397,
-0.1918101,-0.0960784,-0.0203129,-0.0698581,0.0322202,0.0328271,0.0977801,0.0417
881,-0.0378639,0.0885056,-0.0373755,0.0428755,0.017754,-0.0291741,0.0288264,-0.0
135457,0.0762272,0.0409678,-0.0599593,0.0191885,-0.1142878,0.01894,0.0182633,-0.
0226126,-0.0615742,-0.1036675,0.0170723,-0.0269129,0.0277507,0.0853236\Polar=139
.2361137,0.993729,106.1623932,-1.0111734,5.1596601,100.1671396\Quadrupole=-1.553
5211,1.0721011,0.4814199,8.0765269,0.7971533,-3.6728282\PG=C01 [X(C7H14Cl1N1O1)]
\NImag=1\\0.63604107,0.01063613,0.34479935,0.00803869,0.23067388,0.40525595,-0.2
1500661,0.05616316,0.06144522,0.55716135,0.01478008,-0.10159859,-0.04482210,-0.0
4422339,0.53492408,0.01241070,-0.04228073,-0.11064578,-0.04176509,0.33002383,0.5
8222800,-0.00117165,0.03070120,0.03261877,-0.11228714,0.03684886,0.04010862,0.12
094081,0.04871729,-0.00879644,-0.02677788,0.01781108,-0.33507182,-0.27946985,-0.
03835053,0.36148257,0.05109208,-0.02886978,-0.00973884,0.01986085,-0.28080349,-0
.37551593,-0.04097993,0.35639198,0.41361413,-0.20395618,-0.06633526,-0.08003419,
-0.07949727,0.02525443,0.02750061,0.01085834,-0.02960359,-0.03164567,0.40127458,
-0.03837355,-0.10518987,-0.04957180,-0.01435316,0.02886654,0.01526467,0.00178913
,-0.01668578,-0.01301005,0.03011586,0.27320644,-0.09010204,-0.05208678,-0.124637
04,0.00508713,0.00547626,0.01624839,-0.00308477,-0.00267292,-0.00794363,0.142831
95,0.20078500,0.37091740,-0.00847098,-0.00361085,0.00266181,0.00476639,-0.005779
04,-0.00213857,-0.00058087,0.00357883,0.00156121,0.01633563,0.00822741,-0.010771
27,0.56482332,0.00730464,-0.00040701,0.00172187,-0.00281908,0.00279280,0.0015186
4,0.00059472,-0.00196806,-0.00180835,-0.00738900,-0.02094010,0.01472361,0.055040
28,0.55610608,-0.00107279,-0.00035257,-0.00018639,-0.00001643,-0.00017239,0.0000
0205,-0.00019696,0.00036704,0.00024350,-0.00768599,0.01190599,-0.00340464,-0.016
77243,0.02688364,0.61918771,0.00246445,-0.00005765,0.00039565,-0.00058114,0.0012
2612,0.00035257,0.00015049,-0.00079704,-0.00050040,-0.00491220,-0.00332579,0.003
11490,-0.07629809,-0.03420287,0.08328343,0.07660930,-0.00171366,0.00042394,-0.00
021580,0.00085191,-0.00076896,-0.00054514,-0.00023457,0.00050499,0.00050438,0.00
593688,0.00265162,-0.00400837,-0.03045107,-0.08209047,0.08257788,0.02832911,0.09
183027,0.00086987,-0.00004786,0.00016654,-0.00040614,0.00022466,0.00003894,0.000
20156,-0.00007282,-0.00016524,-0.00209185,-0.00233045,0.00202348,0.07955961,0.08
729749,-0.26838324,-0.08267721,-0.09771869,0.28102763,0.00138598,0.00008399,-0.0
0026264,-0.00095300,0.00040069,0.00083293,-0.00010201,-0.00064928,-0.00005557,-0
.00131472,-0.00367540,0.00247611,-0.29464490,-0.07841816,-0.01730687,-0.00497837
,-0.00190158,-0.00201091,0.32222887,0.00026953,0.00143318,-0.00236532,-0.0025836
9,0.00088884,0.00207891,0.00038146,-0.00141848,-0.00091384,0.00416986,0.00041360
,0.00031165,-0.08624762,-0.07623792,-0.00833555,-0.00843715,-0.00279146,-0.00250
078,0.07780683,0.07881825,0.00010706,-0.00048164,0.00053586,0.00140445,0.0010548
0,-0.00058452,-0.00000994,-0.00043428,0.00001292,-0.00252547,0.00026846,0.000109
26,-0.01374901,-0.00606739,-0.05045627,0.02626031,0.00740798,0.00432025,0.021062
00,0.00370011,0.04851794,0.00013174,-0.00056497,0.00079928,0.00023208,-0.0004329
7,-0.00045430,0.00002610,0.00051422,0.00016531,-0.00107518,-0.00087954,0.0001483
0,-0.05213765,-0.02324232,-0.02367560,0.00078683,0.00747121,0.00695052,0.0018053
2,-0.01907836,-0.02169923,0.05086040,-0.00086833,-0.00012704,0.00040571,0.000449
46,-0.00081561,-0.00060542,0.00010141,0.00068502,0.00037455,0.00138943,0.0007083
2,-0.00227796,-0.01661934,-0.18441115,-0.13668467,0.00130739,0.01036794,0.009237
38,0.00097298,-0.00414347,-0.00491346,0.01266122,0.20308092,0.00007490,-0.000120
08,0.00005933,0.00005707,0.00002851,0.00001405,-0.00004777,-0.00003137,-0.000025
64,-0.00006688,0.00004825,0.00031717,-0.01892290,-0.14612388,-0.19895803,-0.0043
3865,-0.01895947,-0.01479161,0.00113037,0.00120584,0.00006567,0.02198218,0.14970
252,0.20475170,-0.05253013,-0.01639150,0.01543568,0.01721534,-0.01809146,-0.0075
5247,-0.00297880,0.00956415,0.00989495,-0.01424773,0.04013889,-0.03272746,-0.143
81062,0.07687479,-0.03040391,0.00574535,-0.00776751,0.00007871,-0.02154931,0.032
36587,-0.01091542,-0.00014969,-0.00139472,0.00109022,0.64182191,-0.04139132,-0.0
0614861,0.00886668,0.01509194,-0.01630399,-0.00605311,-0.00223543,0.00877438,0.0
0753999,0.03503513,0.01013001,-0.04980512,0.04754430,-0.18442315,0.02941377,0.01
573834,-0.01916319,0.00466750,0.00222737,0.00814666,-0.00149711,0.01957239,-0.02
361488,0.01130723,-0.06229099,0.53002353,0.02623508,0.00273530,0.00891438,-0.011
93332,0.00973884,0.00264455,0.00281309,-0.00587082,-0.00384520,-0.04528689,-0.05
566229,-0.00900409,-0.01589426,0.00969686,-0.10383538,-0.02483420,0.02898333,-0.
00481703,-0.00692733,0.00585411,-0.00195338,0.01640176,-0.01944204,0.01029794,0.
14932098,0.21885891,0.49482558,-0.00016891,0.00027454,-0.00052179,-0.00065350,0.
00072243,0.00035441,0.00012899,-0.00061356,-0.00063692,0.00155690,0.00486665,0.0
0822972,-0.00092992,0.01114490,0.01622601,0.00094627,-0.00044375,-0.00038495,-0.
00027152,0.00040615,0.00042824,-0.00153827,0.00266256,-0.00109328,-0.06122066,0.
03433173,0.02811603,0.05854369,-0.00078226,-0.00023936,-0.00065090,0.00033284,-0
.00025066,0.00002923,-0.00013616,-0.00003443,-0.00013473,0.00214830,0.01181339,0
.00773289,0.00233177,-0.01815971,-0.02034258,-0.00094501,0.00071169,0.00008546,0
.00025346,0.00056433,-0.00011213,0.00371463,-0.00262324,0.00244295,0.02219291,-0
.19801512,-0.18179477,-0.03005212,0.21463645,-0.00250667,0.00049059,0.00114872,0
.00123398,-0.00127629,-0.00091110,-0.00017163,0.00072144,0.00089412,0.00358601,-
0.00571812,-0.01271897,-0.00140527,0.01255636,0.01172228,0.00032369,0.00056391,0
.00103349,-0.00029473,-0.00055763,0.00016910,-0.00202495,0.00259886,-0.00001351,
0.01829552,-0.20300020,-0.27651897,-0.02256241,0.19612436,0.28371228,-0.00089986
,-0.00069266,0.00203355,0.00023922,-0.00030925,-0.00016053,0.00005226,0.00013484
,0.00033671,-0.00716676,-0.00371753,-0.00060232,-0.01084869,-0.00612636,-0.00164
547,0.00037685,-0.00018446,-0.00001526,-0.00109272,0.00223774,-0.00071060,0.0009
3023,-0.00051483,0.00015874,-0.37073191,-0.07930786,-0.12649965,0.00549041,0.002
55728,0.00441249,0.38220916,-0.00375666,-0.00120339,0.00264249,0.00142087,-0.001
92087,-0.00042227,-0.00024885,0.00088769,0.00088892,-0.00786772,0.00161069,-0.00
592728,0.03032149,0.00853425,0.00960740,0.00010679,-0.00012124,0.00048719,0.0025
8101,-0.00505916,0.00214340,-0.00009841,0.00092681,-0.00082750,-0.08701640,-0.07
855608,-0.04253540,-0.02227030,-0.00486492,-0.00467647,0.08359022,0.07974481,0.0
0749020,0.00161902,-0.00334283,-0.00252062,0.00311154,0.00178108,0.00014643,-0.0
0164865,-0.00202551,0.00827162,-0.00252540,0.01115389,-0.00759698,-0.00122651,-0
.00321101,-0.00055906,0.00011793,-0.00043794,0.00148114,0.00194995,0.00001950,0.
00114397,-0.00040844,0.00070309,-0.10179444,-0.03329976,-0.08281434,-0.02840015,
-0.00616833,-0.00758928,0.12314494,0.03902291,0.08557544,-0.04451337,0.02036586,
-0.00225222,0.00902065,-0.00108948,-0.01799556,-0.00174521,0.00475400,0.00651551
,-0.03888636,0.00263550,0.01009718,0.00290006,-0.00018910,-0.00115424,-0.0005308
7,0.00058755,-0.00015158,-0.00062125,-0.00116194,0.00061278,0.00006418,-0.000026
20,0.00010297,0.00549121,0.01468097,-0.00716938,-0.00126949,0.00060603,-0.000211
35,0.00015839,0.00256910,-0.00139004,0.08230598,0.01306990,0.00324792,-0.0008672
9,-0.00313012,-0.00116406,0.00598606,0.00090511,-0.00024457,-0.00125586,0.009397
88,-0.03810981,-0.01165266,-0.00507724,0.00005465,0.00438078,0.00137923,-0.00171
130,0.00050559,0.00050325,0.00064950,-0.00027342,-0.00000455,-0.00001939,-0.0002
1973,0.01184548,-0.03998058,0.01701717,0.00108376,-0.00066489,-0.00033874,0.0014
9604,-0.00088011,0.00016342,-0.04960328,0.09853555,-0.00208121,0.00195212,0.0041
5018,-0.00211594,-0.00072255,-0.00056420,0.00101347,0.00004422,0.00015528,-0.004
98125,-0.00718037,-0.03091584,0.00304656,0.00056714,-0.00166636,-0.00072552,0.00
103588,-0.00022962,-0.00014904,-0.00009117,-0.00012233,-0.00008238,0.00051838,-0
.00013705,-0.00894659,0.02495591,-0.00900333,-0.00039237,0.00013027,0.00118391,-
0.00039069,-0.00012441,-0.00020720,0.00850835,-0.00367069,0.03959603,0.00786954,
-0.01542164,-0.02167425,-0.00197026,0.00042695,0.00119537,-0.01024230,-0.0038111
2,-0.00333395,-0.08134558,-0.01286363,-0.01943601,-0.00064460,-0.00020006,0.0002
0045,0.00011982,0.00003744,0.00023477,0.00007888,-0.00020423,-0.00006936,0.00029
651,0.00052611,-0.00013082,-0.00219732,0.00157762,0.01421588,-0.00125348,-0.0016
3838,0.00121228,0.00030948,0.00062962,0.00160598,-0.00868867,0.02001183,0.014309
98,0.61827141,-0.00310328,-0.00347405,-0.00709648,0.00022661,-0.00032763,0.00095
811,-0.00396824,-0.00199670,0.00114206,-0.01028579,-0.12229491,-0.07613977,-0.00
022466,0.00106045,0.00020943,0.00002947,-0.00025446,-0.00014950,-0.00005501,-0.0
0030532,-0.00002393,0.00019052,-0.00059878,0.00092639,-0.00221430,0.00808071,0.0
1505612,-0.00141879,-0.00245001,0.00247269,0.00060578,-0.00006059,-0.00003400,0.
01246834,-0.02377524,-0.01794175,-0.01057875,0.56524088,-0.00301366,-0.00475192,
-0.00502842,0.00032778,0.00033587,-0.00128725,-0.00025058,0.00035908,0.00052290,
-0.01496868,-0.07377240,-0.17039837,0.00110753,-0.00070118,-0.00023855,-0.000174
45,0.00013497,-0.00000230,-0.00022916,0.00009477,-0.00010053,-0.00030109,0.00059
714,-0.00124358,0.00614360,-0.00543575,-0.02973683,0.00116805,0.00309326,-0.0024
1419,-0.00049809,-0.00021498,0.00097284,0.00152202,-0.00299079,0.00147126,-0.005
77298,-0.04308437,0.52814738,-0.00393682,-0.00042573,0.00043670,0.00274945,-0.00
478138,-0.00516384,-0.00450390,0.00299217,0.00321272,0.00373007,0.00114061,0.003
34924,0.00021642,0.00062106,0.00022961,0.00000761,-0.00027417,-0.00022477,-0.000
05894,-0.00004345,-0.00014726,-0.00006675,-0.00055972,0.00020319,-0.00129182,-0.
00093533,0.00057845,0.00011431,0.00004782,-0.00014471,-0.00022256,0.00005070,0.0
0022714,0.00175348,-0.00074688,-0.00028662,-0.13801480,0.13863225,-0.01874915,0.
14472601,-0.00265110,0.00104958,-0.00094737,0.00146951,-0.00386941,-0.00320551,0
.00201420,0.00324555,0.00202782,0.01087111,-0.01363133,0.00421721,-0.00025208,-0
.00003728,0.00046332,-0.00003482,0.00011295,0.00016121,0.00007457,0.00003432,-0.
00008286,-0.00026665,0.00004055,0.00066542,-0.00062747,-0.00024507,0.00035946,-0
.00002076,-0.00011080,0.00007753,-0.00005228,-0.00009146,0.00002531,-0.00029531,
-0.00058073,-0.00185531,0.13650823,-0.23721040,0.01918742,-0.14863312,0.25178518
,-0.00116146,0.00054408,0.00023983,-0.00040258,-0.00160900,-0.00073595,-0.000373
74,0.00121358,-0.00097948,0.01605463,-0.02062763,0.00437158,0.00055686,0.0001168
7,-0.00095976,-0.00026445,0.00017813,0.00003205,-0.00020610,-0.00018126,-0.00019
087,0.00051654,0.00077856,-0.00098306,-0.00020086,0.00109577,0.00093435,-0.00021
216,-0.00022817,0.00028772,0.00001778,-0.00006789,-0.00004184,0.00203232,-0.0046
5262,-0.00255174,-0.01745919,0.02034088,-0.04914650,0.01684792,-0.02049776,0.053
05909,-0.00262028,0.00035984,-0.00079634,0.00122091,-0.00209545,-0.00322117,0.00
039787,0.00142730,0.00224402,0.00087760,0.00272323,-0.00065406,-0.00002453,0.000
18528,0.00012511,0.00005199,-0.00009720,-0.00002557,0.00001293,-0.00001255,0.000
09346,-0.00009345,-0.00010783,-0.00006258,0.00038514,0.00015748,-0.00029922,0.00
027947,-0.00007814,0.00012413,0.00027690,0.00003884,-0.00057916,-0.00039315,0.00
034450,-0.00002453,-0.07749838,-0.05452463,0.07794187,0.00515470,0.00884069,-0.0
1431128,0.07963509,-0.00022517,0.00029644,-0.00030419,-0.00008700,0.00060587,0.0
0046266,-0.00098124,-0.00019826,-0.00128481,0.00654873,0.00891039,-0.01449261,-0
.00001625,-0.00045986,-0.00016311,-0.00006700,0.00029907,0.00010313,0.00001936,0
.00007621,-0.00002523,0.00004371,0.00036061,0.00002009,0.00073522,-0.00092860,-0
.00371998,0.00029287,0.00066571,-0.00050623,-0.00005347,-0.00015572,-0.00019569,
-0.00000576,0.00019521,0.00018602,-0.05351646,-0.12102448,0.11817080,-0.00904227
,-0.01162485,0.01936781,0.05692217,0.12744628,-0.00111244,-0.00096030,0.00063777
,0.00052818,-0.00055837,-0.00221132,0.00031896,0.00037946,0.00152021,0.00933661,
0.01562197,-0.02053878,0.00009062,-0.00034793,0.00027980,-0.00000392,0.00013351,
0.00001811,0.00002763,0.00007544,0.00000145,-0.00006095,0.00003364,-0.00002673,-
0.00082825,-0.00318018,-0.00243396,0.00045059,0.00085675,-0.00055475,-0.00026588
,-0.00014185,0.00000700,-0.00039558,-0.00023449,0.00077632,0.07799651,0.11570796
,-0.21955912,0.00110656,-0.00033631,-0.00117772,-0.08387641,-0.12227628,0.236630
51,0.00228290,-0.00011950,-0.00047672,-0.00026620,0.00186207,0.00212864,-0.00300
605,-0.00121309,-0.00171836,-0.00400717,0.00153513,0.00300261,-0.00008119,0.0001
8462,-0.00023642,0.00002492,0.00002064,-0.00000962,0.00005712,0.00002917,0.00014
736,-0.00019288,-0.00001055,-0.00012037,0.00117306,0.00088822,0.00062195,0.00021
111,-0.00000950,0.00025637,0.00055705,-0.00021654,-0.00066307,0.00195259,0.00088
613,0.00104646,-0.30045476,-0.06544575,-0.04435271,-0.01030987,-0.00707376,-0.00
158888,-0.00764159,-0.00058552,-0.00332464,0.31986265,0.00009478,-0.00092224,-0.
00331068,0.00153751,-0.00213888,-0.00127092,0.00218090,0.00241804,0.00098423,-0.
01806602,-0.00673533,-0.00189589,-0.00008181,0.00016052,0.00005082,0.00001852,-0
.00008009,0.00000943,0.00000273,-0.00005044,-0.00003210,0.00001023,-0.00004991,-
0.00007910,0.00010968,-0.00031322,0.00138759,-0.00002418,-0.00006304,0.00007443,
-0.00008568,0.00026690,0.00003691,-0.00062348,-0.00010196,-0.00000166,-0.0608057
6,-0.06420365,-0.00990835,0.02099944,0.01066564,0.00399050,-0.01388780,-0.003714
61,-0.00445831,0.06954603,0.06452442,0.00215828,-0.00304646,-0.00303189,0.000813
71,-0.00053498,-0.00075224,0.00040984,0.00008456,0.00157451,-0.02808072,-0.00717
276,-0.00697905,-0.00004009,0.00020882,-0.00012728,0.00003257,-0.00000921,0.0000
2633,0.00005466,-0.00012147,0.00012680,0.00000550,0.00000028,0.00001524,-0.00078
160,-0.00001092,0.00078336,-0.00006082,-0.00018492,0.00028996,0.00069057,0.00045
795,-0.00132980,-0.00053071,0.00120705,0.00046067,-0.04013133,-0.00939569,-0.054
43863,-0.00169574,-0.00081312,-0.00194353,0.02297957,0.00439524,0.00632025,0.045
46885,0.01514582,0.05945805,-0.08592522,-0.00262743,-0.00288534,0.00538530,0.019
36749,0.02252138,-0.00577574,0.00150264,0.00118124,0.00084013,-0.01929730,-0.023
19271,0.00023800,0.00023201,0.00003007,-0.00000794,0.00005161,0.00002243,-0.0000
5865,-0.00006999,-0.00001316,-0.00002637,0.00008200,-0.00003903,0.00040087,0.000
76573,0.00038308,-0.00049457,-0.00132701,0.00030110,0.00032315,0.00032014,-0.000
26601,-0.00157043,-0.00071010,-0.00252902,-0.00424429,-0.00014001,-0.00003819,-0
.00022125,-0.00008327,0.00015949,-0.00001187,0.00007890,-0.00006687,-0.00014158,
-0.00078022,-0.00114275,0.58945871,-0.00197155,-0.12361719,-0.07676565,0.0047712
0,-0.00982211,-0.01011278,0.00055669,0.00385160,-0.00161484,-0.00766057,-0.01542
230,-0.00512619,0.00106546,-0.00020320,-0.00006271,-0.00023502,0.00018726,-0.000
03775,-0.00034327,-0.00095706,-0.00007912,0.00023734,0.00008275,0.00004540,0.003
87463,0.00355042,-0.00355018,0.00024271,0.00128792,0.00032743,0.00036988,0.00063
337,-0.00078050,-0.00245245,0.00212014,-0.00009841,0.00035024,0.00325873,-0.0012
5498,0.00011887,0.00018761,0.00031387,-0.00015551,-0.00020675,-0.00052069,0.0003
0457,0.00058898,-0.00022449,-0.00367889,0.52376210,-0.00451759,-0.07461794,-0.15
329010,0.00602355,-0.00746667,-0.01192675,-0.00031623,-0.00189605,0.00392818,-0.
00986012,-0.00347264,-0.01406301,0.00039323,0.00039727,-0.00009918,0.00015417,0.
00004453,0.00006042,0.00010888,-0.00033107,0.00018043,0.00005156,0.00002647,-0.0
0001651,-0.00044347,-0.00065569,0.00183706,-0.00009327,-0.00018192,0.00041469,0.
00019721,0.00025170,-0.00005213,0.00332310,-0.00457001,-0.00307541,-0.00098814,-
0.00203922,0.00245156,-0.00010210,-0.00022940,-0.00031071,0.00016358,0.00029273,
0.00037177,0.00026755,-0.00061035,-0.00002346,-0.00085781,-0.02281573,0.50265067
,0.00263274,-0.00068616,0.00008173,0.00053579,-0.00022260,-0.00127392,0.00007743
,0.00022245,0.00042456,-0.00141368,-0.00114211,0.00029977,0.00004883,-0.00001720
,-0.00005828,-0.00001031,0.00004205,-0.00000746,-0.00003931,-0.00005768,0.000052
76,0.00001289,-0.00002213,0.00000413,0.00024672,0.00017199,-0.00066205,0.0005493
4,0.00042364,0.00026848,0.00000777,-0.00001452,-0.00012218,-0.00253425,-0.001457
40,-0.00367388,0.00005129,0.00017572,-0.00008863,-0.00003135,0.00001826,0.000041
20,-0.00000331,0.00001802,-0.00002706,0.00014757,0.00000542,0.00001743,-0.278710
12,0.08938683,0.04860562,0.30028810,0.01657036,-0.00735614,-0.00301594,-0.002018
36,-0.00256452,-0.00235150,0.00130554,-0.00025359,-0.00076192,0.00404995,0.00065
296,-0.00102833,0.00009384,-0.00006339,0.00013840,-0.00000962,-0.00001974,-0.000
02099,0.00005582,0.00006699,-0.00008040,-0.00004080,0.00006459,-0.00001680,-0.00
087385,-0.00076264,0.00057056,-0.00075020,-0.00151807,0.00002322,-0.00012244,0.0
0004326,0.00019201,-0.00057254,0.00111377,0.00112869,0.00022688,0.00004600,0.000
21764,0.00004802,0.00001127,-0.00000727,0.00001245,-0.00000028,0.00002201,-0.000
06224,0.00001576,0.00005397,0.08967120,-0.08036710,-0.01849089,-0.09616831,0.085
43889,0.02158954,-0.00594390,-0.00430985,-0.00234855,-0.00304708,-0.00356950,0.0
0165146,-0.00075494,-0.00061972,0.00438727,-0.00134208,0.00052666,-0.00000253,0.
00012006,-0.00005899,-0.00001324,0.00004066,0.00000241,-0.00000089,0.00003729,-0
.00005915,0.00000295,0.00001137,-0.00000768,-0.00103518,-0.00015324,0.00049427,0
.00000363,-0.00026776,0.00029867,-0.00004077,-0.00014532,0.00016509,-0.00228648,
0.00095675,-0.00039461,0.00004936,0.00045298,-0.00009144,0.00007344,0.00009283,0
.00013101,0.00000563,-0.00004361,-0.00002846,-0.00003412,-0.00004137,0.00002465,
0.04534547,-0.01755900,-0.05417728,-0.04868534,0.02282034,0.05742138,0.00145571,
0.00071450,-0.00269469,-0.00137390,0.00087136,-0.00002866,0.00037843,-0.00037484
,-0.00011138,0.00023982,-0.00043900,0.00009395,-0.00020613,0.00010366,-0.0000650
2,0.00001807,-0.00002659,0.00002836,0.00002787,0.00005020,-0.00003329,0.00002146
,-0.00004552,0.00001369,-0.00018387,-0.00010500,0.00019326,0.00031005,0.00045581
,-0.00013171,0.00010444,-0.00000320,-0.00000347,0.00002776,-0.00024948,-0.000592
19,-0.00018126,-0.00001149,-0.00005215,0.00003614,0.00003252,0.00003338,-0.00000
940,-0.00005119,-0.00000615,-0.00000093,-0.00004778,-0.00006329,-0.13632627,-0.1
2424389,0.03196089,-0.01463208,-0.02340733,0.00604989,0.14561886,-0.00972911,-0.
01334683,-0.00279108,-0.00379210,0.00125861,0.00027176,0.00099207,-0.00058353,-0
.00093276,0.00456714,-0.00269694,-0.00078204,0.00000938,0.00019566,0.00004831,-0
.00000876,-0.00003334,0.00002497,0.00001049,0.00005179,-0.00011981,0.00001577,0.
00001964,-0.00001477,-0.00059534,-0.00014315,0.00063050,-0.00009940,-0.00032863,
-0.00002680,0.00001624,0.00005183,0.00009903,-0.00115306,0.00061096,0.00038804,-
0.00041860,0.00038363,-0.00017058,0.00002138,-0.00000146,0.00008238,-0.00005665,
-0.00006962,-0.00011090,-0.00005024,-0.00003999,-0.00018766,-0.12438088,-0.21172
859,0.04302199,0.00754371,0.01017750,-0.00296254,0.13488657,0.22707465,-0.016669
76,-0.02211613,0.00308478,-0.00135528,0.00062972,0.00144639,0.00018065,-0.000129
13,-0.00110084,0.00342274,-0.00390217,-0.00156749,-0.00017605,-0.00003460,0.0000
9618,-0.00003358,-0.00005161,-0.00000701,0.00005370,0.00003528,-0.00014101,0.000
02508,0.00002366,0.00000647,-0.00007064,0.00004161,-0.00002045,-0.00030803,-0.00
015767,-0.00012936,-0.00005710,0.00001726,0.00005598,-0.00113075,0.00092290,0.00
021391,-0.00073433,0.00046469,-0.00039766,0.00002924,0.00004286,0.00009812,-0.00
002872,-0.00005949,-0.00012730,-0.00006663,-0.00004226,-0.00027198,0.03024804,0.
04144548,-0.05320057,0.00237128,0.00394131,-0.00194639,-0.03314793,-0.04040274,0
.06005392,0.00027162,-0.00137687,0.00016596,-0.00077280,-0.00039130,0.00078442,0
.00019372,0.00032740,-0.00010361,0.00008630,0.00088297,-0.00076473,-0.00019664,-
0.00005033,0.00014601,-0.00002689,-0.00006669,-0.00000357,0.00012354,0.00001611,
-0.00009648,0.00003123,0.00002385,0.00001604,0.00025943,-0.00014191,-0.00000088,
-0.00043400,-0.00010045,-0.00027303,-0.00002709,0.00010573,0.00000034,-0.0004820
0,-0.00069244,-0.00076679,-0.00025511,-0.00029294,0.00010816,-0.00000033,0.00000
036,-0.00004594,0.00000699,0.00006519,0.00006703,0.00001573,-0.00005550,-0.00006
281,-0.07589105,0.03947108,-0.07188921,-0.00688738,0.01240380,-0.02462712,0.0064
6707,-0.00872867,0.01591497,0.07722346,-0.00884745,0.01002267,-0.02100734,-0.000
87980,0.00147049,0.00032694,0.00004886,-0.00120403,-0.00008559,0.00276956,0.0010
9898,-0.00321809,-0.00000283,0.00050734,0.00009859,0.00002533,-0.00005504,0.0000
6180,0.00011118,-0.00026120,-0.00028782,0.00013972,0.00002083,0.00001014,-0.0011
8040,-0.00079364,0.00150286,-0.00025560,-0.00028684,0.00002356,0.00009895,0.0000
4240,0.00012331,0.00065453,-0.00007297,0.00029039,-0.00063683,-0.00063175,0.0003
9590,-0.00000126,-0.00004441,-0.00003907,0.00002803,0.00002911,0.00009802,-0.000
09133,-0.00025348,-0.00010510,0.03791636,-0.09481443,0.09293275,0.00153426,-0.00
513978,0.00779482,0.00979498,-0.01123564,0.01972058,-0.04179533,0.10162161,-0.00
775437,0.00069317,-0.02007333,-0.00456152,0.00100310,0.00091605,0.00117680,-0.00
164224,-0.00119852,0.00654314,0.00258223,-0.00431150,-0.00092699,0.00013040,0.00
010306,0.00009856,-0.00014670,0.00001852,0.00019888,0.00007887,-0.00027631,0.000
04397,-0.00000272,0.00000563,-0.00182392,-0.00170367,0.00196894,-0.00031401,-0.0
0012982,-0.00019142,-0.00004913,-0.00013049,0.00021060,0.00013642,0.00005957,0.0
0034009,-0.00081907,-0.00062935,0.00037780,-0.00001225,-0.00006738,-0.00005166,0
.00004119,0.00001612,0.00008166,-0.00008424,-0.00032113,-0.00017808,-0.07283536,
0.09829690,-0.22039898,0.00214386,-0.00352193,0.00597837,-0.00292679,0.00326574,
-0.00587062,0.08090598,-0.09828403,0.24184007,-0.02689052,-0.00868645,-0.0093011
0,-0.17332131,-0.02228026,-0.02627665,0.00833392,-0.01216287,-0.01356652,-0.0012
8129,0.00213497,0.00177618,-0.00009047,0.00012718,0.00000153,0.00000523,-0.00008
462,0.00002858,-0.00006595,0.00005593,-0.00001643,0.00004618,0.00000164,-0.00000
397,-0.00060005,-0.00038563,0.00006648,0.00010567,0.00006299,-0.00015270,-0.0000
2659,-0.00010431,0.00014187,-0.00129837,0.00031857,-0.00029019,0.00001584,-0.000
02590,0.00016966,0.00007731,0.00008496,-0.00004348,0.00005865,-0.00005597,0.0000
0738,-0.00013095,0.00000691,-0.00003339,-0.00495439,0.00061244,-0.00068727,-0.00
055943,-0.00043738,-0.00015431,-0.00081573,-0.00009995,0.00065840,0.00057060,0.0
0023475,-0.00013505,0.51339932,0.00329515,0.01161479,-0.00118382,-0.01902518,-0.
09113597,-0.00360517,-0.02653275,-0.01090229,-0.03819696,0.00449454,0.00130040,-
0.00198195,0.00020548,-0.00005270,-0.00005690,-0.00004187,0.00001997,0.00000098,
-0.00005976,0.00003610,0.00001862,0.00001687,0.00003693,-0.00000440,0.00080425,0
.00076431,0.00003279,-0.00004493,-0.00002989,0.00005649,0.00004529,0.00016885,-0
.00020226,-0.00165853,0.00058456,0.00048180,-0.00007003,0.00063104,-0.00032310,0
.00067411,0.00019062,-0.00010841,-0.00004096,-0.00047336,0.00017277,-0.00031940,
-0.00000712,0.00024532,0.00118221,-0.00242883,-0.00007253,0.00006623,-0.00012690
,0.00019626,0.00197222,0.00007428,-0.00096778,0.00019268,0.00004399,0.00071390,-
0.04847204,0.55692694,0.00219724,-0.00065734,0.01140224,-0.02216731,-0.00388382,
-0.09354297,-0.02931205,-0.03810601,-0.01654598,0.00423631,-0.00050754,0.0006295
8,-0.00027309,0.00028369,-0.00009856,0.00008873,-0.00003317,0.00004621,0.0000708
4,-0.00003303,-0.00004263,0.00003561,0.00002788,-0.00003415,-0.00221050,-0.00145
854,0.00093387,0.00001758,-0.00011779,-0.00006330,-0.00006200,-0.00023636,0.0003
2588,0.00206365,-0.00070340,0.00040954,-0.00037328,-0.00120694,0.00011718,0.0001
1684,0.00061466,-0.00007550,0.00015374,0.00010427,-0.00002328,-0.00018740,0.0002
8819,-0.00001681,0.00142843,0.00013495,-0.00172156,0.00021193,0.00038067,-0.0003
1943,0.00079621,0.00083776,0.00012977,0.00092228,-0.00059578,0.00018454,-0.05055
550,0.01595321,0.55769230,-0.00359117,-0.00285791,-0.00307052,-0.02298602,0.0153
4748,0.01489814,0.00650423,0.00014285,0.00061831,0.00013425,0.00075152,0.0005154
9,-0.00012095,0.00006569,0.00003195,0.00000803,-0.00003670,0.00001094,0.00002224
,0.00007860,-0.00004038,-0.00000813,-0.00001564,-0.00000430,-0.00037369,-0.00033
891,0.00015244,0.00003671,0.00000755,-0.00006249,0.00000195,-0.00003751,0.000078
56,-0.00060717,0.00017469,-0.00012153,0.00001581,0.00005371,0.00003826,-0.000055
86,-0.00007151,0.00001778,-0.00003160,0.00002552,-0.00001141,0.00002915,-0.00006
611,-0.00004868,0.00017955,-0.00057513,-0.00062412,0.00009665,0.00003522,0.00004
576,0.00017344,0.00003055,-0.00011305,0.00007532,-0.00007577,0.00004109,-0.21735
586,0.10026634,0.09489935,0.23256267,-0.00089556,-0.00046758,-0.00143665,-0.0118
2256,0.00416434,0.00497263,0.00022309,0.00026338,0.00143168,-0.00064222,0.000139
66,-0.00006399,0.00003233,-0.00004414,0.00001627,-0.00001100,0.00000478,-0.00000
648,-0.00000704,0.00001091,0.00000264,-0.00000728,0.00000183,-0.00000011,0.00026
014,0.00017085,-0.00011877,-0.00002885,-0.00001926,0.00001158,0.00000598,0.00002
552,-0.00003050,-0.00023422,0.00008480,-0.00002197,-0.00002343,0.00000274,-0.000
01359,-0.00004040,-0.00001019,0.00000412,0.00000464,0.00001632,0.00000353,0.0000
2073,-0.00000150,0.00000228,0.00024184,-0.00063971,0.00004455,0.00015511,0.00030
512,-0.00008907,0.00007005,0.00052054,0.00004017,-0.00000496,-0.00006533,-0.0000
7593,0.10354809,-0.10593160,-0.05500028,-0.10773433,0.10846380,-0.00117427,-0.00
137722,-0.00069741,-0.01254374,0.00630086,0.00470452,0.00035107,0.00128902,0.000
64038,-0.00057079,-0.00014908,0.00039746,-0.00001116,0.00001055,0.00000862,0.000
00136,-0.00000824,-0.00000324,-0.00000755,-0.00003958,-0.00000322,0.00001090,-0.
00000139,0.00000587,-0.00017379,-0.00008106,-0.00004036,-0.00001632,-0.00001570,
-0.00001650,-0.00001679,-0.00003151,0.00004479,0.00010938,0.00001454,0.00000474,
-0.00001348,0.00001915,-0.00000450,-0.00003096,-0.00001929,0.00001068,-0.0000090
7,0.00001475,0.00000604,0.00002031,-0.00000829,0.00000023,0.00038469,-0.00020853
,-0.00048417,0.00010292,-0.00000851,0.00024769,0.00010730,0.00013171,-0.00023078
,-0.00014924,-0.00010741,0.00042992,0.09855057,-0.05526994,-0.10032731,-0.102133
58,0.06048631,0.10209876,-0.00248240,-0.00104278,0.00127410,0.00666555,0.0087676
0,-0.02547496,-0.00306611,-0.00442077,-0.00025967,0.00159850,0.00048174,0.000353
46,-0.00023360,0.00015219,0.00000582,0.00004209,-0.00003530,0.00001866,0.0000064
3,-0.00001683,-0.00009359,0.00003999,0.00000228,-0.00000108,-0.00087176,-0.00067
121,0.00040585,-0.00002391,-0.00004547,-0.00005739,-0.00002504,-0.00010615,0.000
15218,0.00023750,-0.00007572,0.00010472,-0.00004922,-0.00024570,0.00003255,0.000
01009,0.00011422,0.00000175,0.00000879,0.00002999,0.00001347,-0.00002764,0.00003
019,-0.00000277,-0.00141506,0.00113455,-0.00119427,0.00007196,-0.00009838,0.0000
9423,-0.00028435,0.00026284,0.00026020,-0.00057499,0.00012489,0.00092036,-0.0475
4254,0.00318877,-0.00677336,0.00208405,-0.00634590,0.02297334,0.04651713,0.00050
365,0.00004718,0.00035851,0.00167687,0.00136810,-0.01305522,-0.00299144,-0.00307
205,-0.00019611,0.00020945,-0.00000799,-0.00010888,-0.00009937,0.00004554,-0.000
00264,0.00001696,-0.00001250,0.00000947,-0.00001350,0.00001793,-0.00004130,0.000
02113,0.00000058,-0.00000292,-0.00013003,-0.00014198,0.00011680,0.00001937,0.000
03048,-0.00000644,0.00000260,-0.00003154,0.00002489,0.00014698,-0.00007534,-0.00
001674,-0.00008347,-0.00015129,0.00004610,0.00002212,0.00007959,-0.00001028,0.00
002149,0.00002054,-0.00000433,-0.00001965,0.00003197,-0.00001908,0.00012680,0.00
038672,0.00049147,-0.00024104,-0.00011327,-0.00005212,-0.00000914,-0.00055847,0.
00045935,0.00033441,0.00021360,-0.00024537,0.00267020,-0.04682793,0.04211332,-0.
00227612,0.00275649,-0.01414196,-0.00110229,0.04965011,-0.00130104,-0.00131866,-
0.00017322,0.00440871,0.00164694,-0.00953315,-0.00345007,-0.00171899,-0.00006316
,0.00111456,0.00042915,-0.00002282,-0.00022404,0.00006463,0.00003348,0.00001821,
-0.00002293,0.00001670,-0.00002710,0.00002985,-0.00009695,0.00000880,0.00000172,
-0.00000484,-0.00040104,-0.00041474,0.00031372,-0.00001302,-0.00003085,-0.000035
68,0.00000394,-0.00005010,0.00005016,-0.00007974,0.00011006,0.00012217,-0.000050
92,-0.00012050,0.00004466,0.00004279,0.00010485,-0.00001138,0.00003527,0.0000044
8,0.00001873,-0.00005624,0.00002500,-0.00000004,0.00177117,-0.00049728,0.0005485
8,0.00022151,-0.00005574,0.00030520,0.00002902,0.00026631,-0.00028573,-0.0000718
3,0.00010571,0.00013700,-0.00426228,0.04610320,-0.31382882,-0.00233120,0.0032495
3,-0.00908319,0.00466494,-0.04674548,0.33473231,-0.00237164,0.00159814,-0.001417
34,0.00447712,-0.02617900,0.00841793,-0.00258282,0.00030747,-0.00419549,0.001571
99,0.00064342,-0.00004064,-0.00000880,0.00002345,0.00001041,-0.00001148,-0.00001
052,0.00000489,0.00000146,0.00004602,-0.00004880,0.00000322,0.00000446,-0.000001
87,-0.00000167,0.00002040,0.00000282,-0.00001468,-0.00002052,-0.00001502,0.00000
395,0.00000606,0.00001080,-0.00077121,0.00033085,0.00012018,0.00001143,0.0001528
3,-0.00006994,0.00013864,0.00003350,-0.00000953,-0.00003946,-0.00009237,0.000035
98,-0.00005303,-0.00001802,0.00004371,-0.00105093,-0.00118020,0.00032427,0.00005
414,0.00008836,-0.00007012,-0.00086519,0.00075664,0.00072757,0.00022327,0.000285
21,-0.00000756,-0.04767928,-0.02013868,0.00467573,0.00320639,0.02323575,-0.00576
108,-0.00068544,0.00119401,-0.00005040,0.04644402,-0.00093248,-0.00004069,-0.001
53883,0.00293146,-0.00858660,0.00108418,-0.00296404,0.00031684,-0.00141652,0.000
89191,0.00021136,0.00002220,0.00001159,0.00004085,0.00001148,-0.00000366,-0.0000
1267,0.00000906,0.00001930,0.00001592,-0.00004399,0.00000689,0.00000617,-0.00000
261,-0.00019205,-0.00010697,0.00015305,-0.00002524,-0.00005107,-0.00001555,0.000
00599,0.00000870,0.00003382,-0.00040351,0.00018389,0.00004619,-0.00002252,0.0000
5509,-0.00001096,0.00011517,0.00005452,0.00000280,-0.00000921,-0.00006539,0.0000
2485,-0.00006023,0.00000322,0.00002459,0.00155617,0.00030966,-0.00005333,0.00026
546,0.00034933,-0.00012134,0.00006258,0.00034711,0.00007873,-0.00012621,-0.00021
247,0.00006074,-0.01706325,-0.31447621,0.04180140,-0.00289408,-0.00975176,0.0032
0081,-0.00008277,-0.00365648,-0.00116617,0.01891272,0.33505765,0.00020365,0.0003
2117,-0.00044048,0.00094589,-0.01467818,0.00175663,-0.00279705,0.00037555,-0.003
33846,0.00051305,0.00003907,-0.00018961,-0.00007283,0.00001194,0.00000697,0.0000
0053,-0.00000378,0.00000615,-0.00001925,0.00001863,-0.00003199,0.00000625,-0.000
00200,0.00000021,0.00004989,0.00000169,0.00007528,0.00001524,0.00002287,0.000002
07,0.00001836,0.00001261,-0.00001345,-0.00027605,0.00010580,-0.00001641,-0.00003
348,0.00011104,-0.00001772,0.00010357,0.00001442,-0.00000470,-0.00001947,-0.0000
6686,0.00001181,-0.00004067,-0.00001251,0.00001273,0.00008967,0.00074478,0.00039
645,-0.00024841,-0.00012860,-0.00001291,0.00055073,-0.00056683,0.00011168,-0.000
17596,0.00024486,-0.00004185,0.00407820,0.03799788,-0.04523083,-0.00278681,-0.01
340794,0.00229099,0.00258146,0.03102895,-0.00318371,-0.00268650,-0.04218457,0.04
785116\\0.00000250,0.00000277,0.00000531,0.00000361,-0.00000178,-0.00000411,-0.0
0000463,-0.00000013,-0.00000404,-0.00000289,0.00000230,-0.00000061,0.00000284,0.
00000773,-0.00000050,-0.00000273,-0.00000300,-0.00000300,-0.00000636,-0.00000530
,-0.00000445,-0.00000624,-0.00000079,-0.00001021,0.00000178,-0.00000457,-0.00000
481,0.00000095,0.00000296,0.00000609,-0.00000397,0.00000536,-0.00000065,0.000002
92,0.00000532,0.00000769,0.00000122,0.00000460,0.00000299,-0.00000606,0.00000682
,-0.00000308,-0.00000321,0.00001031,-0.00000112,-0.00000660,0.00000943,-0.000001
17,0.00000652,-0.00000472,0.00000089,0.00000569,-0.00000112,0.00000609,0.0000047
5,-0.00000469,0.00000656,0.00000541,-0.00000709,0.00000414,-0.00000632,-0.000000
10,0.00000692,0.00000481,-0.00000958,-0.00000715,0.00000239,-0.00000853,-0.00000
326,0.00000361,-0.00000623,0.00000150\\\@
