1\1\GINC-NODE-001\Freq\RwB97XD\def2SVP\C10H10Br1N1O2\JP2658\30-Dec-2023\0\\# wb9
7xd def2svp scrf=(iefpcm,solvent=toluene) freq=noraman\\imda-2_1_opt_sqm_reopt.o
ut\\0,1\C,-2.05644,-2.09527,-0.33592\C,0.38819,-0.58372,1.61264\C,-2.05704,0.124
19,-0.67541\C,-0.2817,0.5748,1.56777\C,-3.06353,-1.5678,0.44475\C,-3.0665,-0.162
53,0.22893\C,-1.54952,1.43837,-1.18973\H,-0.7257,1.26036,-1.89676\H,-2.33859,1.9
535,-1.75898\C,-1.07234,2.3892,-0.08035\H,-0.70281,3.33322,-0.50419\H,-1.92778,2
.63341,0.5744\C,0.01979,1.85003,0.82182\O,1.03551,2.46027,1.05239\H,-1.15283,0.6
5465,2.22676\H,0.06478,-1.35218,2.31995\C,1.57395,-1.02936,0.85869\O,2.29457,-1.
90895,1.18629\N,-1.47326,-1.06277,-1.01582\H,-0.6646,-1.14645,-1.61922\H,-1.7263
,-3.12137,-0.47716\Br,1.92282,-0.14997,-0.88464\H,-3.73037,-2.13271,1.09269\H,-3
.7317,0.56782,0.68704\\Version=ES64L-G16RevC.01\State=1-A\HF=-3165.5415433\RMSD=
5.279e-09\RMSF=1.240e-05\ZeroPoint=0.1846434\Thermal=0.1971371\ETot=-3165.344406
1\HTot=-3165.343462\GTot=-3165.3971234\Dipole=-1.5643048,0.0962952,-0.3091794\Di
poleDeriv=0.0670706,-0.0077455,-0.2218718,0.0665224,-0.1492707,-0.0661644,-0.265
9824,0.0129088,0.0650255,-0.5199787,0.2557367,-0.0446205,0.3620638,-0.2567025,0.
1208379,0.2624581,-0.1790393,-0.2718496,-0.0814535,-0.0472204,-0.2784079,-0.1455
397,0.0433778,0.0660697,-0.2301766,0.0154331,0.0306755,0.2928745,-0.0761479,-0.0
009968,-0.2773255,-0.0667606,0.0459106,0.1879913,0.1419487,-0.0787255,-0.127561,
0.0287801,-0.0691575,-0.0219293,-0.0561695,-0.0683007,-0.09,-0.0808199,-0.173068
6,-0.1702694,-0.0626576,-0.0083597,0.0218178,-0.0074143,0.0240619,-0.2381953,0.0
325442,-0.244973,0.1678286,0.0623507,0.0255799,0.0404152,0.1395667,0.0097924,0.0
396153,-0.007603,0.1703246,-0.0122872,-0.0293779,0.1156539,0.0088775,-0.001163,-
0.0724285,0.0664575,-0.0365683,-0.0036486,-0.0349634,0.0476865,-0.0983775,-0.006
7584,-0.0617923,0.0635067,-0.0477086,0.0666446,0.0107579,-0.1619159,-0.0217831,-
0.1545758,0.121957,-0.06975,0.0952519,-0.0958214,0.0937518,-0.0312158,0.0358482,
-0.0809801,0.0106322,-0.0430628,-0.0903633,0.0401935,-0.0421355,0.0304142,0.0408
513,-0.012585,0.0462895,0.049923,0.0091614,0.1101163,0.0109405,0.0320604,-0.0332
73,-0.0321617,1.0897258,0.3117337,0.4197446,0.0559633,1.061112,-0.189483,0.42389
3,-0.3680016,0.5064651,-0.8822235,-0.3874391,-0.2437482,-0.1838904,-0.8268018,-0
.0400466,-0.2365534,0.0691065,-0.4551,0.0325333,0.0557776,0.0487107,0.003289,0.0
742163,0.006146,-0.0006998,0.0635241,0.1132968,0.0231382,0.0407449,0.0933079,0.0
199666,0.0422879,0.0327441,0.0485038,0.0470124,0.0676404,1.3101392,-0.7688737,0.
0799916,-0.4329854,1.2652239,-1.0848398,-0.6156181,-0.3979899,1.799855,-0.801465
4,0.5999646,-0.3479474,0.4960716,-1.0625096,0.675789,0.0293049,0.2756722,-0.7946
046,-0.6159262,-0.0445232,0.2142522,-0.0520558,-0.0917851,-0.085536,0.301387,-0.
1116214,-0.4800123,0.3546324,0.0295985,0.066366,0.0186537,0.1986207,0.0707646,0.
0381921,0.0642487,0.3183944,0.1234109,0.0567003,0.0524117,0.0295571,0.0157142,-0
.0084263,0.0617072,-0.0131696,0.1342109,-0.2564077,-0.0251552,0.1673281,-0.11373
62,-0.2568161,0.3390581,0.2088033,0.2875531,-0.8959893,0.0732119,-0.0468752,0.07
30182,-0.0638425,0.0418543,0.0575826,0.0888823,0.0628169,0.0887043,0.1066231,0.0
634157,0.051143,0.0868095,0.0052089,-0.0434241,0.073635,-0.0354932,0.1151474\Pol
ar=150.3390492,-7.9124901,157.8335529,-12.1896104,-13.8734194,123.4795974\Quadru
pole=-6.1678192,0.8644138,5.3034055,-3.1719335,-4.942126,-1.0328983\PG=C01 [X(C1
0H10Br1N1O2)]\NImag=1\\0.46447871,-0.13474960,0.83760862,-0.27679287,0.00843971,
0.35997303,0.00039511,-0.00088644,0.00155836,0.46220100,0.00174101,0.00173858,-0
.00010887,-0.22301584,0.74359650,-0.00066952,0.00027890,0.00059235,-0.16837932,-
0.16963081,0.35925989,-0.00299885,0.01424674,0.00819328,-0.00573272,0.00605360,0
.00031306,0.48628618,-0.00777674,-0.08480482,0.02260074,-0.00158392,-0.00075425,
-0.00082754,0.02433504,0.74298685,0.01264105,0.00253872,0.00258538,-0.00170716,0
.00061207,-0.00239557,-0.27108558,-0.08232569,0.40720410,0.00134596,0.00171043,0
.00041723,-0.18653209,0.20772902,0.01015317,0.00603222,-0.00040331,-0.00145081,0
.52161720,-0.00112764,-0.00045392,-0.00097043,0.19302809,-0.44051791,0.04026356,
-0.00204304,0.00042858,0.00095941,-0.21052309,0.70543739,0.00326921,0.00187274,-
0.00147173,0.02150273,0.01724295,-0.07813919,0.00375913,-0.00031056,-0.00025332,
-0.16946454,-0.10329748,0.32926803,-0.25151053,0.09263958,0.14450472,0.00024146,
-0.00116885,0.00032323,0.00659204,-0.01213396,0.00750013,-0.00138437,0.00022384,
-0.00156602,0.53315376,0.07770987,-0.14626308,-0.05742540,0.00075125,0.00128563,
-0.00101509,-0.05594023,-0.02178968,0.05067317,0.00093768,-0.00075156,0.00290879
,0.03510793,0.63004149,0.14428660,-0.06803767,-0.18124016,-0.00025959,0.00002984
,-0.00006752,0.01397767,0.01459992,-0.00345902,-0.00014057,-0.00076890,0.0008962
5,-0.35268821,-0.10589334,0.44208898,0.00653718,0.01319516,0.00477008,0.00012765
,-0.00100821,0.00076581,-0.24027489,-0.04292934,0.15137730,-0.00234370,0.0004691
1,-0.00288175,-0.09076883,0.01565400,0.02238452,0.52141648,0.05877406,-0.0413210
6,-0.03904527,0.00059555,-0.00203068,0.00045527,-0.02817159,-0.11608730,0.030729
69,-0.00301121,0.00037694,-0.00339050,-0.00858744,-0.30684618,0.04490590,-0.1330
1676,0.67962967,-0.00187353,-0.00234319,0.01229287,-0.00367181,0.00326021,0.0010
7490,0.14716383,0.04392923,-0.20271992,0.00265813,-0.00159984,0.00076416,0.02552
393,0.02539984,-0.08703007,-0.31632265,0.03203680,0.39023874,0.00059552,0.004682
67,0.00135408,0.00026794,0.00012173,-0.00025689,-0.10212826,-0.04855403,0.036333
45,-0.00099902,0.00127116,0.00176541,-0.00280705,0.00117524,0.00495255,0.0005573
4,-0.02211013,0.00447060,0.58105232,0.00278626,-0.00119254,-0.00298693,-0.000692
19,0.00025051,-0.00015843,-0.03852936,-0.20412693,0.04608681,0.00164586,-0.00123
659,0.00096742,0.00092306,0.00189385,-0.00085740,-0.00429536,0.00015205,0.003691
18,-0.05060959,0.51649603,0.00185040,-0.00258634,0.00235379,0.00083333,-0.000321
32,-0.00012647,0.03427730,0.05362930,-0.09706942,-0.00120190,0.00135339,-0.00005
869,0.00492157,-0.00070666,-0.00120054,0.00307721,0.01872949,-0.00178180,-0.0334
0026,-0.03035761,0.52895018,-0.00021060,-0.00056546,0.00021048,0.00004326,-0.000
03674,-0.00002079,-0.00877468,0.00315495,0.00572110,-0.00009779,0.00006498,-0.00
012496,-0.00015522,0.00013474,0.00043306,0.00100392,-0.00185498,-0.00005770,-0.2
0414947,0.03270634,0.13233014,0.21650401,-0.00028615,-0.00030589,0.00029949,0.00
006984,-0.00006059,0.00002459,-0.02482028,0.00484623,0.02074180,-0.00005165,-0.0
0005757,-0.00029132,-0.00104091,-0.00015925,0.00089596,0.00047444,-0.00483321,0.
00029305,0.03468723,-0.05671168,-0.02758772,-0.03341082,0.06468314,0.00019751,0.
00039961,-0.00040667,-0.00015867,0.00008258,0.00012066,0.00836671,-0.00234568,-0
.00884249,0.00017198,-0.00006440,-0.00003604,0.00041903,0.00003258,-0.00002447,-
0.00018163,0.00165597,0.00090405,0.12996169,-0.02593811,-0.15559554,-0.14090080,
0.03133351,0.16797378,-0.00013579,-0.00109779,0.00029805,0.00005763,0.00003759,-
0.00006815,0.01151722,-0.00706089,0.00729926,-0.00026843,0.00021826,0.00019174,0
.00037219,0.00009331,-0.00016137,-0.00020555,-0.00003734,0.00028440,-0.19115807,
0.09243747,-0.09862631,-0.01532202,0.01025444,-0.01259029,0.20082434,-0.00115544
,-0.00197744,0.00058568,0.00011271,0.00015836,-0.00002834,0.01881974,-0.01702201
,0.01241379,-0.00053056,0.00037403,0.00013321,0.00065304,-0.00160179,-0.00066569
,-0.00000749,0.00194865,-0.00147532,0.09457252,-0.10250300,0.06557854,0.00238796
,-0.00239430,0.00243484,-0.09636228,0.11684822,0.00043787,0.00090379,-0.00072007
,0.00008078,0.00001841,0.00004137,-0.00527368,0.00664245,-0.00371017,-0.00021934
,0.00038808,0.00022300,-0.00043043,0.00066792,0.00036612,0.00023827,-0.00042855,
0.00096623,-0.09870961,0.06408893,-0.11480945,0.01449465,-0.00990886,0.01122834,
0.10839336,-0.06729766,0.12361862,-0.00069926,-0.00138368,0.00088119,-0.00053103
,-0.00330676,0.00087946,-0.00350892,-0.00984582,-0.00610686,0.01309075,-0.002028
37,-0.00279361,0.00061770,-0.00064479,-0.00041743,0.00052690,0.00029782,0.000499
30,-0.08162067,-0.01718065,-0.02349241,0.00951038,0.01434855,0.01597070,-0.00650
409,-0.01633996,-0.01899767,0.52793303,-0.00021048,-0.00109491,0.00076228,-0.000
86267,-0.00185762,0.00068516,-0.01035300,-0.02734914,-0.01842539,0.01594010,-0.0
0565379,0.02171172,0.00085032,-0.00072460,-0.00067830,0.00139266,0.00185568,-0.0
0088933,-0.02263868,-0.12057988,-0.05374872,-0.00247472,-0.00381306,-0.00414062,
0.00386630,0.00853795,0.00964062,0.03782988,0.55927260,0.00056996,0.00161667,-0.
00036148,0.00188397,0.00057218,-0.00253676,0.00291362,0.00389252,0.01378489,-0.0
1683727,0.01590061,0.00207368,-0.00034545,0.00063688,0.00018245,0.00007104,0.000
45908,0.00034357,-0.02710953,-0.04361638,-0.14385153,-0.00869834,-0.01314933,-0.
01552852,-0.00487795,-0.01402312,-0.01591706,-0.04982323,-0.05174089,0.50585078,
0.00023838,-0.00037460,0.00008843,0.00029258,0.00075234,-0.00004638,0.00079427,-
0.00079388,-0.00144080,-0.00375039,-0.00014417,-0.00246108,-0.00011757,0.0000894
4,-0.00014537,0.00010382,-0.00012446,0.00011419,-0.00296869,-0.00580179,0.004274
58,0.00050955,0.00042700,-0.00022171,-0.00017642,-0.00014130,0.00011865,-0.08026
169,-0.08345156,0.03913821,0.08268939,-0.00027606,-0.00061356,0.00034568,-0.0002
5477,-0.00006781,0.00035565,-0.00086879,-0.00125194,-0.00293547,0.00205428,-0.00
007089,0.00121904,0.00021727,-0.00045787,-0.00010197,0.00038077,0.00028164,-0.00
023426,-0.00465771,-0.01333240,0.00752370,0.00039016,0.00019687,0.00035522,-0.00
008536,0.00041396,0.00004315,-0.07984982,-0.24994547,0.09431842,0.08714628,0.267
66027,-0.00011744,-0.00066173,0.00041858,0.00016960,0.00066828,-0.00024485,-0.00
086778,-0.00256007,-0.00400017,-0.00397468,0.00133415,-0.00062278,0.00016145,-0.
00037714,0.00008194,0.00013403,0.00008516,0.00014524,-0.00881466,-0.02165494,0.0
1014617,0.00044733,0.00026725,0.00099585,-0.00001840,0.00053776,0.00078307,0.036
78208,0.09330139,-0.09235024,-0.03681480,-0.09986609,0.09807238,0.00008441,0.000
18780,-0.00009554,0.00004981,-0.00009239,-0.00003523,0.00052058,0.00007187,0.000
21608,0.00125772,-0.00146151,-0.00131540,-0.00010596,0.00006335,-0.00004309,-0.0
0001575,-0.00004396,-0.00024623,0.00917154,-0.00377233,-0.00812211,0.00008536,-0
.00187148,-0.00187600,0.00108981,0.00040813,0.00022091,-0.20929470,0.04788722,0.
12637383,-0.00622077,0.00337532,0.00372402,0.22441600,-0.00009968,0.00036559,0.0
0001504,-0.00002861,0.00034279,-0.00008714,0.00122851,0.00065054,-0.00050725,-0.
00101565,0.00051099,0.00133404,0.00003899,-0.00022510,0.00024137,0.00001522,-0.0
0007598,-0.00009229,0.01464395,-0.00597846,-0.01369204,-0.00159740,-0.00188393,-
0.00284356,-0.00015067,0.00084357,0.00101787,0.04676557,-0.05792362,-0.02946115,
-0.02055552,0.00764893,0.01459494,-0.04827833,0.05910663,-0.00004335,0.00021436,
-0.00002929,-0.00024057,-0.00038285,0.00035496,0.00004288,0.00140511,0.00002054,
0.00194436,-0.00074287,-0.00156604,-0.00006179,-0.00021388,0.00026021,0.00005837
,0.00012216,0.00006773,0.01882657,-0.00703209,-0.01576337,-0.00235625,-0.0036355
4,-0.00288332,0.00035433,0.00068167,0.00073668,0.11952867,-0.02722262,-0.1319845
9,0.00814820,-0.00387067,-0.00651288,-0.12947476,0.03729623,0.14767729,-0.000263
99,0.00138155,-0.00057159,0.01296673,0.01103814,-0.00795761,-0.00165549,-0.00134
679,-0.00070915,-0.08923050,0.01286575,0.00331162,-0.00001360,0.00024500,-0.0000
1113,0.00020954,0.00046251,0.00016314,-0.00818799,-0.00783336,-0.00729118,0.0010
1673,0.00130147,0.00242994,0.00186669,0.00120515,0.00156751,-0.12355964,0.041146
86,-0.03746825,0.00681974,-0.00587642,0.00886800,-0.01969562,0.00880565,-0.01493
050,0.81178612,0.00038370,-0.00117346,0.00106212,-0.00372413,-0.01709150,0.01517
123,0.00040619,0.00367914,-0.00237570,0.00255109,-0.15764049,0.05913902,-0.00002
880,-0.00010107,0.00052970,-0.00005909,-0.00060678,0.00167164,-0.01860150,0.0144
2530,-0.01098772,0.00016620,0.00017530,-0.00010013,-0.00226153,-0.00372725,-0.00
509769,0.03000453,-0.11872109,0.03028217,0.02391492,-0.01303377,0.01720801,0.002
69360,-0.00316001,0.00391330,0.26024057,0.56020647,-0.00063999,0.00091312,-0.000
83771,-0.00227741,0.00313455,0.00596197,-0.00166663,-0.00086253,0.00136806,0.016
79820,0.04865773,-0.12694075,0.00016624,-0.00020470,-0.00055678,0.00045433,0.000
64631,-0.00101725,-0.01748511,0.00382190,-0.01536369,-0.00053606,0.00119903,0.00
050810,0.00012536,-0.00184221,-0.00101893,-0.03426350,0.04044970,-0.12968661,-0.
01316063,0.00581072,-0.00857937,0.01638502,-0.00997777,0.01428568,0.16237431,-0.
04755788,0.36113494,-0.00031082,-0.00081539,0.00040432,-0.00345989,0.00079250,0.
00115717,0.00075108,0.00122078,-0.00007790,-0.01287932,-0.04329995,0.00405536,0.
00011206,-0.00058714,-0.00027873,0.00013953,-0.00007622,0.00012886,-0.00485622,0
.00753724,-0.00026778,0.00020457,-0.00067856,-0.00066611,-0.00098058,-0.00225471
,-0.00248213,-0.04285604,-0.02467103,-0.02573879,0.00197754,-0.00065943,0.001000
35,-0.00111682,0.00061329,-0.00128772,-0.59174113,-0.29599594,-0.13386910,0.6538
1233,-0.00042776,0.00030284,-0.00026656,0.00031387,0.00108206,-0.00061031,-0.000
58324,-0.00080675,0.00069647,-0.05012308,-0.02917867,0.00256055,0.00006165,-0.00
026324,-0.00042793,0.00021847,0.00033535,-0.00046768,0.00350311,-0.00075263,0.00
099604,-0.00008130,-0.00033964,-0.00027413,0.00024104,0.00033999,0.00045070,-0.0
0138254,0.02107410,0.00397785,-0.00099364,0.00256225,-0.00265862,0.00060639,0.00
064466,-0.00142301,-0.31182864,-0.27135450,-0.05970339,0.35809610,0.28355534,0.0
0023846,-0.00053668,0.00042200,0.00035650,0.00102042,-0.00062870,0.00053236,0.00
066144,-0.00057453,0.00773851,0.01349219,0.02214430,-0.00008101,0.00005969,0.000
13657,-0.00011737,-0.00029248,0.00040940,-0.00144169,0.00103113,0.00037636,0.000
45278,-0.00020475,-0.00007279,-0.00029546,-0.00048630,-0.00074784,-0.03711662,-0
.01028066,0.01071710,0.00255287,-0.00308344,0.00130007,-0.00552194,0.00128811,-0
.00435200,-0.12141134,-0.05068887,-0.10399990,0.15191968,0.05301244,0.08038095,0
.00018150,-0.00008093,-0.00010123,-0.00730607,0.00229373,0.01134248,-0.00057727,
-0.00014089,-0.00053017,-0.22959611,0.02299507,0.14598109,-0.00016209,0.00018500
,0.00011743,-0.00074171,-0.00052200,-0.00155774,0.00013659,0.00043175,0.00002973
,-0.00001152,-0.00002139,-0.00002146,-0.00002110,-0.00004135,-0.00007487,-0.0010
1305,-0.00032079,-0.00036206,0.00008687,-0.00020462,0.00000336,0.00011847,0.0003
6237,-0.00028665,-0.00193524,-0.00135520,0.00534108,0.00159811,0.00027073,-0.000
08532,0.23772843,0.00030383,-0.00007718,-0.00028744,0.02365601,0.00031006,-0.016
48599,-0.00048282,0.00001610,-0.00007085,0.01359527,-0.04828607,0.00040388,-0.00
002280,0.00000443,0.00022475,-0.00020495,0.00020782,-0.00047059,-0.00029358,0.00
002784,-0.00024525,-0.00001910,0.00001753,-0.00003277,-0.00002553,-0.00005175,-0
.00000363,0.00155291,-0.00119881,-0.00148841,0.00010046,-0.00009180,-0.00038006,
0.00071574,-0.00078646,0.00087658,-0.01855361,0.00673761,0.01615882,0.00027046,-
0.00503285,-0.00148678,-0.02438342,0.05295678,-0.00005177,-0.00004218,-0.0001583
3,-0.00075512,0.00622093,0.00617143,-0.00011177,-0.00015488,-0.00066776,0.147469
54,-0.00779696,-0.15351595,0.00013105,-0.00028360,0.00025975,-0.00021657,0.00014
956,-0.00033631,0.00004383,0.00017546,0.00006391,0.00003201,-0.00002880,0.000108
91,-0.00001795,-0.00005852,-0.00002024,-0.00098633,0.00014599,0.00062428,-0.0000
6259,-0.00003975,0.00025609,-0.00043943,0.00058516,-0.00054561,0.01274029,-0.006
01917,-0.00193996,0.00144557,0.00385856,-0.00100969,-0.15924613,0.00321211,0.149
04296,-0.00020517,-0.00024621,-0.00021823,-0.07397255,-0.05871646,0.06481258,-0.
00100486,0.00011081,-0.00018056,0.00641545,0.01643858,-0.00838486,0.00026033,-0.
00030327,0.00012892,0.00023772,0.00042220,-0.00056063,-0.00012657,-0.00000727,0.
00009612,0.00000744,0.00000312,-0.00005422,-0.00000952,-0.00005845,-0.00005032,-
0.00018363,-0.00052599,-0.00053822,0.00011835,-0.00000181,-0.00003356,0.00007054
,-0.00007915,0.00005087,0.00169836,0.00060685,0.00758995,0.00213965,0.00254970,-
0.00198823,-0.00199656,-0.00125872,-0.00469109,0.07281074,-0.00022732,0.00001899
,-0.00015769,-0.05904619,-0.18975074,0.13902379,-0.00046078,-0.00009361,-0.00007
778,-0.00714116,-0.01705029,0.01751338,0.00004810,-0.00011127,-0.00006815,0.0000
6536,0.00009302,-0.00025446,-0.00003427,-0.00016473,-0.00006836,0.00000460,0.000
03039,0.00002457,0.00002337,0.00006449,0.00004153,-0.00069688,-0.00132530,0.0004
1696,0.00030432,-0.00019798,0.00026129,0.00002823,-0.00001067,-0.00001337,0.0066
0907,0.00143702,0.00285590,-0.00085119,0.00043345,-0.00105273,-0.00211106,-0.001
12138,-0.00237718,0.05542984,0.20227110,0.00021743,-0.00024415,-0.00005228,0.064
06854,0.14129062,-0.16731147,-0.00062624,-0.00002244,-0.00021077,0.00036795,-0.0
0131505,0.00581168,0.00009143,0.00001958,0.00037335,0.00002594,0.00018581,-0.000
40184,-0.00004806,-0.00002315,-0.00011942,-0.00000042,0.00000556,0.00004187,-0.0
0002383,-0.00003951,0.00001606,-0.00049878,-0.00126674,-0.00010161,0.00028751,-0
.00017839,0.00014413,0.00006381,-0.00004470,0.00004123,0.00490488,-0.00020404,0.
00765528,0.00094370,0.00192026,-0.00169316,-0.00319662,-0.00280005,-0.00352592,-
0.07427288,-0.14744531,0.16966574,-0.00017642,-0.00006380,-0.00010000,-0.1642229
9,0.00977605,0.07498461,0.00444782,0.00165600,0.00069392,-0.02118172,0.01764776,
-0.00043265,-0.00024409,-0.00003465,0.00048817,-0.00025005,-0.00074176,0.0036162
7,0.00022439,0.00045950,-0.00128064,-0.00000907,-0.00005294,0.00043966,-0.000041
31,-0.00000695,0.00025312,-0.00102080,-0.00080176,0.00034023,0.00027994,-0.00022
715,0.00044246,-0.00005689,0.00021602,0.00004993,-0.00053304,0.00447212,-0.00851
183,-0.00312544,-0.00474943,0.00370823,0.00538021,0.00445518,0.00644973,-0.00611
926,0.00705830,0.00823889,0.60884972,0.00073445,0.00050031,0.00006206,0.02710053
,-0.08303749,-0.01665030,0.00050900,-0.00112965,-0.00075539,0.02900526,-0.010702
58,-0.01589225,-0.00040479,0.00021737,0.00066965,-0.00034153,-0.00038596,0.00007
097,0.00046100,0.00005859,-0.00064849,0.00010860,-0.00023612,0.00060605,-0.00034
594,-0.00007032,0.00014556,0.00021294,-0.00016876,0.00015728,-0.00009331,-0.0000
3415,-0.00009492,-0.00023259,0.00013503,0.00004067,0.00227475,0.00103770,-0.0043
9973,-0.00330186,0.00019484,0.00150905,0.00417085,-0.00237606,0.00466272,-0.0150
8927,0.00473548,0.01017034,-0.40929552,0.61815141,-0.00122665,-0.00207762,0.0017
7450,0.06855851,-0.00615087,-0.12179844,-0.00498261,0.00066555,0.00028074,0.0046
6285,-0.00527802,0.00588381,0.00113487,-0.00022925,-0.00133433,0.00077672,0.0008
6435,-0.00354775,-0.00034638,-0.00029345,0.00231039,-0.00017922,0.00011936,-0.00
135271,0.00040680,-0.00018818,-0.00050695,0.00113907,0.00309158,0.00031844,-0.00
083324,0.00062507,-0.00062151,0.00011661,-0.00010748,-0.00037218,-0.01094678,-0.
00954255,0.00408500,0.00525013,0.00300094,-0.00404659,0.00279973,0.00441545,0.00
581797,0.01664117,-0.00575157,-0.00905855,0.01252889,-0.13069898,0.29291506,-0.0
0008206,0.00002992,0.00012849,-0.03475475,0.05483379,-0.00078537,-0.00160032,-0.
00057833,-0.00025154,0.00146561,-0.00449655,0.00574538,0.00008441,-0.00011850,-0
.00009939,0.00016561,0.00030988,-0.00131795,0.00009399,-0.00010560,0.00026114,0.
00009616,-0.00004061,0.00003238,-0.00009320,-0.00001152,-0.00003610,0.00032117,0
.00048086,-0.00002755,-0.00011717,0.00007673,-0.00022654,-0.00000519,-0.00004704
,-0.00002225,-0.00091452,-0.00334962,0.00163972,0.00119042,0.00189930,-0.0005705
6,-0.00120193,0.00091397,-0.00078097,0.00103028,-0.00039757,-0.00295371,-0.38504
670,0.36545335,-0.10732484,0.40528700,-0.00027157,-0.00024267,-0.00009734,0.0414
3289,-0.02027104,0.00292231,0.00088701,0.00071058,0.00042669,-0.00332042,0.00743
827,-0.00203581,0.00009279,0.00003561,-0.00027544,-0.00002660,-0.00009675,0.0007
6146,-0.00030633,0.00004469,0.00033631,-0.00018071,0.00013876,-0.00045551,0.0002
4596,0.00002774,-0.00010830,-0.00015829,-0.00017467,-0.00020724,0.00007172,0.000
01826,0.00015127,0.00008494,-0.00004160,-0.00000951,0.00015404,0.00198955,0.0009
1342,0.00006825,-0.00086321,-0.00030480,-0.00077470,-0.00104241,-0.00149438,0.00
073238,0.00044988,-0.00026396,0.38245731,-0.50775677,0.14484901,-0.42790838,0.54
692245,0.00030165,0.00047085,-0.00032105,0.01334568,-0.00875916,0.01898423,0.000
92513,-0.00021449,-0.00014647,0.00230595,-0.00170410,0.00046697,-0.00027437,0.00
002391,0.00038014,-0.00013824,-0.00018040,0.00064322,0.00017664,0.00008116,-0.00
079967,0.00013802,-0.00004959,0.00055131,-0.00018711,0.00004840,0.00019585,-0.00
014590,-0.00069111,-0.00001181,0.00018114,-0.00018656,0.00011397,-0.00005677,0.0
0003496,0.00012750,0.00248705,0.00255884,-0.00224033,-0.00156091,-0.00095132,0.0
0132417,-0.00063805,-0.00106251,-0.00117399,-0.00140403,-0.00133793,0.00065109,-
0.13298844,0.16804747,-0.12554554,0.12868728,-0.19636268,0.13986076,-0.13351837,
-0.07185698,0.07702367,-0.00010561,-0.00300654,-0.00234574,-0.13651460,0.0907969
4,0.05393963,-0.00242505,0.00071166,-0.00284563,-0.04222523,0.00654421,0.0478937
5,-0.04236451,0.00695685,0.04799690,0.00672860,-0.00997759,-0.00614825,0.0012999
5,-0.00037331,-0.00095860,-0.00012253,-0.00088815,0.00003571,-0.00121900,-0.0031
3645,0.00056057,-0.00044847,-0.00059764,-0.00054250,0.00005594,-0.00009550,0.000
00331,0.00070939,0.00075977,0.00028236,-0.00036442,-0.00024726,-0.00003371,-0.00
020774,-0.00023835,-0.00032570,0.00016316,0.00012057,0.00022505,0.00081476,-0.00
149424,0.00276737,-0.00035777,0.00077850,-0.00071560,0.64893502,-0.07281691,-0.2
5143635,0.09555564,0.00207003,0.00036776,0.00190343,0.08400516,-0.28911980,-0.04
777090,0.00062255,-0.00227920,-0.00297790,-0.02537513,-0.00440150,0.02729363,0.0
3909259,-0.01318744,-0.03407112,0.01150828,-0.02800477,-0.00660268,0.00119714,0.
00224373,-0.00162307,-0.00001909,-0.00040142,-0.00126729,0.00193708,-0.00086919,
0.00119047,-0.00021109,0.00019575,0.00000213,-0.00019527,-0.00000897,-0.00019992
,-0.00017717,0.00086630,-0.00071632,0.00006309,-0.00025277,0.00032411,-0.0001180
3,-0.00032683,0.00009966,-0.00018626,-0.00010341,0.00008556,-0.00025414,0.000546
12,0.00100416,0.00013707,-0.00020394,-0.00015030,-0.05503911,0.67872188,0.074692
06,0.09192346,-0.13632587,-0.00096191,-0.00221410,-0.00181114,0.05119456,-0.0451
1232,-0.09335708,-0.00148363,-0.00003422,-0.00241924,0.05213372,-0.00333540,-0.0
3238152,0.04054659,-0.00132842,-0.02331932,-0.00735848,0.01266421,0.00340601,-0.
00115843,-0.00029851,0.00138276,0.00017983,0.00285303,-0.00104039,-0.00107961,-0
.00034740,-0.00106895,-0.00008086,-0.00005295,0.00024362,0.00007943,0.00029732,0
.00032301,0.00048235,0.00042563,0.00019693,-0.00024172,-0.00013220,-0.00006466,0
.00019739,0.00015241,0.00015277,0.00025646,0.00009104,0.00012436,0.00043310,-0.0
0005806,-0.00070738,-0.00007073,0.00003593,0.00024065,-0.43231126,-0.03702800,0.
45380173,-0.00578453,0.00291123,-0.00024355,-0.00052251,0.00037587,0.00052002,-0
.00758331,-0.00275156,0.00217202,0.00037098,-0.00033969,0.00039179,0.00172036,-0
.00177551,0.00037974,0.00145521,0.00223911,-0.00026007,-0.00031950,-0.00047267,-
0.00169261,0.00028877,0.00032715,0.00016547,-0.00004256,0.00003877,0.00007817,0.
00006773,-0.00021686,0.00013063,-0.00006424,-0.00010025,-0.00014236,-0.00002085,
-0.00000865,-0.00005938,0.00063950,-0.00046113,0.00024098,-0.00040772,0.00022896
,-0.00006971,-0.00003048,0.00005964,0.00003912,-0.00013717,0.00001926,0.00009499
,0.00061586,0.00177434,-0.00378218,0.00021308,-0.00098093,0.00112593,-0.29903085
,0.03197735,0.22048418,0.30850171,-0.02006473,0.01243079,0.01240579,-0.00004374,
0.00003993,0.00012495,0.02090498,0.00791850,-0.01761888,0.00015472,-0.00006283,0
.00006736,-0.00281581,-0.00476734,0.00364316,0.00305961,-0.00622114,-0.00159617,
0.00063645,0.00133042,-0.00142626,-0.00087853,-0.00108029,0.00100562,-0.00024269
,0.00032510,0.00022275,-0.00026062,-0.00010010,0.00015182,0.00002062,0.00000532,
0.00001999,0.00003520,0.00013726,0.00020014,-0.00020408,-0.00004650,-0.00031636,
0.00017332,0.00004040,0.00011563,-0.00000245,-0.00001064,0.00003529,-0.00004823,
0.00000954,0.00005060,-0.00000480,0.00130594,-0.00105815,0.00026832,-0.00085231,
0.00043950,0.03133691,-0.07565533,-0.01302689,-0.03267874,0.06409888,0.00536750,
-0.00525925,-0.00887806,0.00012353,0.00058852,0.00000760,-0.00016976,0.00054268,
-0.00541580,0.00026220,-0.00018489,0.00008103,0.00077215,0.00357085,0.00136089,0
.00038108,-0.00164726,0.00257241,-0.00227809,-0.00000266,-0.00103819,0.00030402,
-0.00002301,0.00023895,0.00002410,0.00054403,0.00003643,0.00024634,-0.00018354,-
0.00005667,-0.00000512,0.00004086,-0.00003701,-0.00004039,-0.00004315,-0.0000759
7,-0.00008670,-0.00080100,0.00023755,0.00015527,0.00033434,-0.00010543,-0.000049
38,-0.00000040,-0.00002618,-0.00003815,-0.00000090,-0.00006048,-0.00130324,0.000
21063,-0.00107565,0.00030057,-0.00020465,0.00008252,0.21662568,-0.01395918,-0.17
215042,-0.22202039,0.01650246,0.18257743,-0.07496232,0.09590051,0.03086023,-0.00
012621,0.00000901,0.00003087,-0.00107821,-0.00169581,0.00297981,-0.00002454,0.00
003692,-0.00001602,0.00305579,0.01737887,-0.00295913,-0.00147261,0.00156185,0.00
484136,0.00151020,-0.00044266,0.00112206,-0.00000570,0.00004904,-0.00006846,-0.0
0024825,-0.00049067,0.00017854,0.00012322,0.00037704,-0.00013726,0.00003162,0.00
004945,0.00002154,0.00000304,-0.00004839,-0.00004225,0.00003538,-0.00010202,0.00
006230,0.00000970,0.00007093,-0.00003056,-0.00001306,0.00000404,-0.00001191,0.00
001301,0.00000689,-0.00007500,0.00003360,-0.00032036,-0.00001049,-0.00001424,0.0
0020164,-0.00000632,0.00626907,-0.01775625,-0.00539283,-0.00041903,0.00037064,-0
.00141027,0.06760443,0.08956965,-0.32761481,-0.03392116,-0.00006760,0.00009004,0
.00010519,-0.00293882,0.00022551,0.00260295,0.00005731,0.00000059,-0.00000736,-0
.00170129,-0.00016208,0.00173007,0.00119296,0.00050445,-0.00052790,0.00070854,-0
.00021418,-0.00004950,-0.00000208,0.00004491,-0.00003396,-0.00006948,-0.00021655
,0.00002769,0.00002602,0.00000563,0.00005712,-0.00002992,-0.00000909,-0.00004318
,0.00000805,0.00000494,-0.00001955,0.00010302,-0.00008895,0.00011644,-0.00005177
,0.00004505,-0.00005224,0.00000240,0.00000447,0.00001078,-0.00000377,-0.00001138
,-0.00007914,0.00003229,-0.00028145,-0.00001220,-0.00004568,0.00016994,-0.000014
56,0.00840515,-0.01572318,-0.00563544,0.00004082,0.00007361,-0.00024818,-0.09526
898,0.34318295,0.03198453,-0.04141350,-0.04661648,-0.00014411,0.00006340,0.00014
471,0.00394733,0.00112379,-0.00152609,0.00008636,0.00002558,-0.00001092,-0.00075
237,-0.01346525,0.00478914,0.00441555,-0.00140602,0.00098856,0.00067993,0.000459
96,0.00185823,-0.00005442,-0.00006308,-0.00000206,-0.00021640,-0.00026634,0.0001
3120,0.00019604,0.00059429,-0.00033025,0.00005802,0.00010981,0.00011451,0.000002
00,-0.00001113,-0.00001356,-0.00004984,-0.00005381,0.00001322,0.00005789,0.00004
397,-0.00002378,0.00000199,0.00000042,0.00002716,0.00001258,-0.00001929,-0.00011
040,-0.00001149,-0.00034591,0.00014280,-0.00002391,0.00020671,-0.00007436,-0.009
20854,0.01902092,0.00260060,-0.00114088,-0.00062674,-0.00092984,-0.02807808,0.03
639750,0.03974838,0.00016955,0.00061596,-0.00059237,0.00043119,-0.00509201,0.015
45001,-0.00012811,-0.00040840,-0.00025810,-0.00105257,-0.00077341,0.00190885,-0.
00033034,0.00032305,0.00019883,-0.00034497,-0.00019738,0.00002728,-0.00093026,0.
00054826,-0.00041843,-0.00188403,0.00064502,-0.00028728,-0.00016490,0.00004449,0
.00011885,0.00011430,-0.00009504,-0.00007591,-0.00000062,0.00005636,-0.00001139,
0.00000842,-0.00003506,-0.00005173,0.00018263,-0.00015641,0.00102443,0.00001316,
0.00226683,0.00116412,-0.00028303,-0.00016570,-0.00046801,-0.00118691,0.00124105
,0.00215046,-0.03846630,-0.00070380,0.01242846,0.01418308,0.00664831,-0.01143407
,-0.00387301,-0.00174842,-0.00025786,-0.00141014,-0.00008187,0.00050186,0.000009
76,-0.00001857,-0.00002015,0.03486184,0.00000763,0.00003068,-0.00006949,0.001168
51,0.00610186,0.00412849,-0.00099220,-0.00025293,0.00008110,0.00003656,-0.000627
28,0.00108708,0.00002795,0.00016184,-0.00014018,-0.00010829,0.00011310,-0.000585
65,0.00039162,-0.00036205,0.00067288,0.00089774,-0.00017104,-0.00018689,0.000239
27,0.00002014,-0.00016936,0.00022379,0.00068832,0.00000349,-0.00015181,0.0001546
0,-0.00010076,0.00007691,-0.00005198,0.00000853,-0.00213532,-0.00378014,0.000858
71,0.00444470,-0.00176619,-0.00402298,-0.00071125,0.00014667,-0.00092879,0.00027
538,0.00039412,0.00023897,-0.01204718,-0.02067785,0.00282338,0.01272286,-0.02643
790,0.03995108,-0.00110307,-0.00019397,-0.00008049,-0.00046180,-0.00043851,0.000
04530,0.00005687,0.00002652,0.00002984,-0.00295404,0.04691381,0.00042128,0.00095
054,-0.00063004,0.00584312,0.01290329,-0.01749694,0.00201455,-0.00054935,-0.0003
3856,-0.00017918,0.00110729,-0.00270856,-0.00046497,-0.00003320,0.00073544,-0.00
031382,-0.00024279,0.00152211,0.00001225,0.00028208,-0.00129027,-0.00029919,0.00
004411,0.00081464,-0.00029069,0.00008662,0.00032545,-0.00032464,-0.00087848,-0.0
0000519,0.00024501,-0.00022102,0.00019101,-0.00007363,0.00010015,0.00016407,0.00
207476,0.00188988,-0.00354088,-0.00002849,-0.00406980,0.00020298,0.00038391,-0.0
0060818,0.00045328,0.00284595,-0.00164311,-0.00189135,0.03231732,-0.01685377,-0.
04367689,-0.02245048,0.05130950,-0.03328762,-0.00176543,-0.00033803,0.00053266,0
.00162165,0.00054848,0.00022715,-0.00003639,-0.00004274,-0.00012262,-0.02129764,
-0.04376658,0.09986807,-0.00463385,-0.01428856,0.00595661,0.00001991,0.00003069,
0.00005918,0.00124904,0.00177101,0.00186747,0.00009903,0.00004256,0.00002331,-0.
16035786,-0.09315828,0.12499405,0.00421668,0.00310192,-0.00416929,0.00068634,0.0
0000229,0.00031117,0.00005508,0.00006032,-0.00007823,-0.00007480,-0.00009293,0.0
0005908,0.00005271,0.00004069,-0.00007041,-0.00001511,0.00000360,0.00000569,-0.0
0001192,-0.00000862,-0.00000567,0.00006548,-0.00004397,0.00004281,-0.00002752,0.
00001580,-0.00002525,0.00000108,-0.00005591,0.00001217,-0.00007116,-0.00000511,-
0.00003438,0.00007209,-0.00010680,0.00014430,-0.00003397,0.00009426,-0.00005860,
-0.00090045,0.00159795,0.00474615,0.00095949,-0.00052198,0.00122914,-0.00105985,
-0.00001759,-0.00211067,0.00002239,0.00003168,-0.00010215,0.16079378,0.00767456,
0.01133773,-0.00832629,-0.00008456,0.00010338,0.00002458,0.00089774,-0.00603892,
0.00048608,0.00012107,0.00000727,0.00009039,-0.09487246,-0.13896542,0.09697151,-
0.01818558,-0.00258962,0.01556553,-0.00087626,0.00066470,0.00089597,-0.00019176,
-0.00044543,0.00016434,0.00001303,-0.00002393,-0.00000215,0.00000387,0.00010511,
0.00007974,-0.00002567,-0.00003558,-0.00003779,0.00003454,0.00004223,-0.00002039
,0.00019764,-0.00008575,0.00009427,-0.00010632,0.00000785,-0.00005305,-0.0000227
8,-0.00003747,0.00002232,-0.00004683,0.00001219,-0.00000747,0.00010711,-0.000023
48,-0.00006182,-0.00004827,0.00004239,-0.00000391,0.00349409,-0.00078021,-0.0020
5006,0.00027798,0.00085492,-0.00012846,-0.00099551,-0.00007942,0.00030591,0.0000
3044,0.00000433,0.00001686,0.10221895,0.13473862,0.00318080,0.01059181,-0.004271
21,0.00006353,-0.00000599,-0.00001640,0.00155155,0.00020800,0.00252470,-0.000007
17,0.00005361,0.00000595,0.12483568,0.09505279,-0.14887488,-0.00062331,-0.001803
85,0.00083269,0.00046221,-0.00002490,0.00061571,-0.00001934,0.00003046,-0.000013
03,-0.00007758,-0.00002705,0.00006679,0.00006663,0.00008937,-0.00012346,0.000007
72,0.00002913,0.00002759,-0.00001149,-0.00002875,-0.00000136,-0.00004524,-0.0000
8429,0.00001460,0.00003968,0.00004159,-0.00000626,-0.00000059,-0.00003212,-0.000
01043,-0.00004137,0.00001038,-0.00002258,-0.00009845,0.00006505,-0.00000264,0.00
005327,-0.00005466,0.00000345,0.00470716,-0.00134072,0.00149409,0.00090441,0.000
82208,0.00112093,-0.00206228,-0.00049006,-0.00178235,0.00009718,0.00003052,0.000
01040,-0.13172756,-0.10317685,0.14983736,0.00146622,-0.00109212,0.00206616,0.000
17215,-0.00014126,-0.00022665,-0.00462998,0.01488627,0.00105736,0.00007066,0.000
22369,0.00038090,0.00397264,-0.00383059,-0.00303130,-0.15791499,0.12377348,0.092
54940,-0.00077298,0.00024238,-0.00144288,-0.00000509,0.00000047,-0.00009159,-0.0
0015877,0.00013925,-0.00000133,-0.00008538,-0.00005294,0.00012815,0.00019910,-0.
00009039,-0.00019579,-0.00038717,-0.00064129,-0.00014463,-0.00026554,-0.00006019
,-0.00011683,0.00017777,0.00007399,0.00012527,-0.00013429,0.00007697,-0.00019797
,0.00004834,0.00001257,0.00004935,-0.00022432,-0.00007508,0.00027690,0.00009101,
-0.00002205,-0.00006607,-0.00129828,-0.00031143,0.00497150,0.00094018,0.00088748
,0.00110804,0.00072519,0.00006933,0.00036865,0.00005888,0.00006351,-0.00015310,-
0.00110660,0.00038499,-0.00125542,0.15906125,-0.00019493,-0.00576243,0.00152861,
-0.00000864,-0.00002783,0.00002684,-0.00610956,0.00916569,0.00381455,-0.00004107
,-0.00000441,-0.00004843,0.01726772,-0.00604917,-0.01382049,0.12497285,-0.191216
26,-0.08207211,0.00031858,-0.00018416,-0.00068697,0.00008020,0.00011516,-0.00005
608,0.00008853,0.00008756,-0.00001596,-0.00012478,-0.00003936,-0.00002672,0.0000
6560,0.00000444,0.00000366,-0.00032946,-0.00028640,0.00002753,-0.00007577,0.0000
5686,-0.00004972,0.00006978,-0.00000773,0.00003155,0.00009896,0.00001040,0.00004
569,0.00000282,-0.00000893,-0.00003319,-0.00005756,-0.00000213,-0.00000871,0.000
02162,-0.00000485,0.00001242,-0.00185047,0.00000673,0.00229143,-0.00002268,0.000
66438,0.00030687,0.00104695,0.00002246,-0.00071106,0.00001036,0.00000383,0.00000
824,-0.00071198,0.00118453,0.00004444,-0.13451706,0.19227163,0.00175882,0.002088
01,0.00190791,0.00016749,-0.00013427,-0.00014061,0.00561110,-0.01461518,-0.00308
125,-0.00007733,0.00022154,0.00012435,-0.00595458,0.00413688,0.00425806,0.091318
50,-0.08126001,-0.09361163,-0.00179044,-0.00040419,-0.00121268,-0.00015767,-0.00
001368,-0.00011157,-0.00010575,0.00050065,-0.00024410,-0.00014290,0.00002168,0.0
0001953,0.00005804,-0.00000590,-0.00006540,0.00017029,0.00009122,0.00004127,0.00
007547,-0.00033869,0.00026084,-0.00005860,0.00009121,-0.00008855,-0.00004794,0.0
0001062,-0.00004814,0.00002174,0.00002899,0.00003504,-0.00025781,-0.00001970,0.0
0011839,0.00009368,-0.00003829,-0.00002503,0.00513980,0.00156574,0.00014677,0.00
106202,-0.00068618,0.00130680,0.00024052,0.00012942,0.00098420,0.00010261,0.0000
9182,-0.00005834,-0.00106891,-0.00084926,-0.00142968,-0.09615814,0.08938758,0.09
091383\\0.00000319,0.00000472,-0.00000527,0.00001875,0.00004022,-0.00001720,0.00
001038,0.00000145,0.00000022,-0.00000191,-0.00001780,0.00001971,0.00000490,-0.00
000175,-0.00000014,-0.00000865,-0.00000118,-0.00000475,0.00000481,0.00000368,-0.
00000082,-0.00000703,0.00000184,0.00000301,-0.00000428,0.00000128,-0.00000376,-0
.00000939,-0.00002246,0.00001268,0.00000701,0.00001591,-0.00001147,-0.00000272,-
0.00000463,0.00000094,-0.00001604,0.00002270,0.00000258,-0.00000161,0.00000594,0
.00000255,0.00000488,-0.00000227,-0.00000493,-0.00001649,-0.00002356,0.00001538,
-0.00000005,-0.00002095,-0.00000821,-0.00000078,0.00001251,0.00000682,-0.0000342
5,0.,0.00002422,0.00003554,-0.00000064,-0.00002250,0.00000275,-0.00000643,-0.000
00631,0.00000785,0.00000114,0.00000184,0.00000352,-0.00000495,0.00000278,-0.0000
0038,-0.00000477,-0.00000737\\\@
