1\1\GINC-NODE-001\Freq\RwB97XD\def2SVP\C6H8O2\JP2658\30-Dec-2023\0\\# wb97xd def
2svp scrf=(iefpcm,solvent=toluene) freq=noraman\\da-1_1_opt_sqm.out\\0,1\O,-2.15
634,0.98025,0.52368\C,0.9755,1.98877,-0.16503\C,-0.91712,-1.60385,0.54397\C,1.44
884,0.88133,0.41269\C,-2.23562,0.2336,-0.42317\C,-1.61036,-1.11014,-0.48672\H,-2
.80525,0.53561,-1.3354\H,-0.80655,-1.0152,1.4592\H,-1.73911,-1.67782,-1.41299\H,
0.50328,2.78547,0.41303\H,1.03666,2.12782,-1.24992\H,1.39245,0.71908,1.49312\C,2
.05436,-0.19652,-0.39148\O,2.46357,-1.2384,0.06083\H,-0.44128,-2.58566,0.50532\H
,2.1085,0.01674,-1.49003\\Version=ES64L-G16RevC.01\State=1-A\HF=-383.4143564\RMS
D=8.670e-09\RMSF=4.784e-06\ZeroPoint=0.124454\Thermal=0.1343511\ETot=-383.280005
3\HTot=-383.2790611\GTot=-383.3275628\Dipole=-0.3960206,0.295047,-0.8403112\Dipo
leDeriv=-0.5195638,0.0901363,-0.0708818,0.1421262,-0.9070646,-0.1986809,0.009289
3,-0.4290638,-0.7369595,-0.1027102,-0.1669692,-0.0208667,-0.1309522,0.0912821,-0
.0145098,-0.0023182,-0.1135121,0.0803549,-0.0401005,-0.1539982,0.0978628,-0.0713
307,0.0235284,0.0217459,0.1333197,-0.0951292,0.0584577,-0.2915874,0.2289297,-0.0
140442,0.1696558,-0.5589643,-0.0550088,0.1112869,-0.2355081,-0.0437704,0.6457567
,-0.3973369,0.287976,-0.4720918,1.2235418,-0.0009981,0.2685702,0.1601561,0.86462
57,-0.4169517,0.2716121,-0.0710357,0.238432,-0.4831233,0.2463545,-0.1232112,0.40
36871,-0.1036316,-0.0429471,0.0622537,-0.1382456,0.0620448,0.0016783,0.0640041,-
0.1672079,0.0824076,-0.1802447,0.1301635,0.0381114,-0.0160677,0.002712,0.0728388
,-0.0838698,-0.0408678,-0.0380762,0.0448551,0.1211845,0.0291299,-0.0502649,0.026
455,0.0491809,-0.0560296,-0.0512708,-0.0737499,-0.0289199,0.1120347,0.0598194,0.
0179689,0.0457076,0.0577095,-0.0145024,0.0311834,-0.0429189,0.0510467,0.1305907,
0.028791,0.028976,0.031171,0.0993306,-0.0278879,0.0082543,0.035614,-0.0501255,0.
1399884,0.040432,0.024181,0.0479792,0.0569775,0.0408659,0.0324045,0.0073798,-0.0
366347,0.5868938,-0.5458032,0.002154,-0.4592715,1.4063497,-0.1711605,-0.2181816,
0.1634062,0.8136986,-0.6004963,0.3397466,-0.0632012,0.3121458,-1.1765913,0.18153
74,-0.033938,0.1960841,-0.5727634,0.0988424,0.0609494,-0.0229739,0.0530044,0.027
9427,-0.0002041,-0.0109225,-0.0236321,0.0877852,0.0489022,0.0141959,0.008463,0.0
022123,0.015383,0.0683442,0.0536099,0.0028553,-0.2477741\Polar=58.5434347,-22.86
21618,91.2736567,10.5776452,-6.6748293,73.9214187\Quadrupole=-4.6657747,1.166432
1,3.4993425,6.6291331,2.1013656,-1.1150627\PG=C01 [X(C6H8O2)]\NImag=1\\0.0499650
5,0.01038777,0.38427977,0.06169437,0.39668285,0.57147634,-0.00122767,0.00015438,
0.00043418,0.26558882,-0.00016261,-0.00042599,-0.00005330,-0.28244097,0.71762978
,-0.00032183,-0.00033925,-0.00030359,-0.02067218,-0.09667345,0.68177796,-0.00121
204,-0.00536018,-0.00571527,-0.00005002,-0.00011799,-0.00011274,0.35069282,0.000
33756,0.00136335,0.00346667,0.00025019,-0.00015429,-0.00015299,-0.23310056,0.611
11055,0.00013321,-0.00824088,-0.00876773,0.00007949,-0.00016677,-0.00035241,0.24
607473,0.01546913,0.70734384,-0.00099327,-0.00091040,-0.00068513,-0.12178629,0.1
5926168,-0.06332439,-0.00050794,-0.00038371,0.00018056,0.23874968,0.00027533,0.0
0111262,0.00062964,0.16055105,-0.42016352,0.16929988,-0.00064582,-0.00051313,0.0
0017210,-0.24963305,0.67593061,0.00058526,0.00075167,0.00032775,-0.06776514,0.17
654098,-0.21167732,0.00008486,0.00013481,0.00047892,0.00236713,-0.15645261,0.717
25500,-0.08262066,-0.01920369,-0.05889019,-0.00038360,-0.00048291,0.00012079,-0.
00752112,0.02072303,-0.00648096,-0.00016332,0.00056625,-0.00023077,0.32087973,-0
.01605740,-0.34748104,-0.33064495,-0.00146943,0.00031580,-0.00000312,0.02026807,
-0.01468938,0.01948785,0.00052584,-0.00209752,-0.00056243,-0.09960398,0.64882189
,-0.05593264,-0.33580121,-0.53627318,-0.00033971,-0.00016219,0.00057375,-0.00856
480,0.02490524,0.01306290,0.00077248,-0.00050842,-0.00052557,0.16578189,0.259161
50,0.82366033,0.01843555,0.01385812,0.01518212,-0.00050370,0.00036416,-0.0001319
8,-0.19330028,0.10720593,-0.19950782,-0.00049900,-0.00131266,0.00006274,-0.11301
524,0.04933273,-0.02344673,0.32192707,0.01259362,-0.04790182,-0.03960147,0.00039
030,-0.00035198,-0.00003671,0.10238299,-0.16518797,0.11150890,-0.00024068,0.0002
9059,0.00001112,0.06284086,-0.19022802,0.01716239,-0.18407148,0.52752563,0.01471
182,-0.03857806,0.00976584,0.00013068,0.00006733,0.00029844,-0.20434917,0.121058
15,-0.38693090,0.00014878,0.00018350,-0.00052115,-0.00835265,-0.01327338,-0.1125
6308,0.26182327,0.03623218,0.75243865,0.01627714,-0.00392831,-0.01399494,0.00006
231,-0.00005544,-0.00003622,0.00002141,0.00331065,0.00085179,0.00011130,0.000011
63,-0.00005077,-0.12274815,0.04364985,-0.08485818,0.00817660,0.00827264,-0.01680
980,0.09991894,-0.01156887,0.01630946,-0.02974589,0.00003679,-0.00004551,0.00003
225,0.00259453,-0.00526020,-0.00140555,0.00000802,0.00010995,-0.00002427,0.04084
721,-0.09109623,0.05767515,0.01917384,-0.00088937,0.01980907,-0.05061475,0.08136
627,-0.02196784,-0.01331182,-0.04003399,-0.00004695,0.00008376,-0.00009558,0.000
06023,0.00013365,0.00159900,-0.00011199,-0.00010713,0.00007816,-0.08783240,0.063
81841,-0.18480939,-0.00532355,-0.00397850,0.00418597,0.11453458,-0.04740471,0.21
938911,0.00113020,0.00059650,0.00084553,0.00007132,-0.00000187,-0.00009191,-0.04
855445,-0.00913211,-0.02669030,-0.00027435,-0.00002590,0.00031526,-0.00644345,-0
.00432434,0.00150025,0.00504225,-0.00841130,-0.01492335,0.00066449,0.00022816,0.
00012379,0.03628710,0.00043358,-0.00011521,-0.00032266,0.00006725,-0.00001081,-0
.00005070,-0.01058514,-0.14037725,-0.13687415,-0.00009383,-0.00022135,0.00009265
,-0.00256814,-0.00224598,0.00203319,0.00185594,0.01267308,0.01009151,-0.00010727
,0.00021710,-0.00072548,0.00930670,0.13509584,0.00046685,0.00007661,0.00211951,-
0.00020257,0.00003674,-0.00003418,-0.02854676,-0.13248114,-0.25657861,-0.0001400
8,-0.00035276,0.00002021,0.00328285,-0.00104384,-0.00279494,-0.00276727,-0.01453
178,-0.01509716,-0.00019878,-0.00006589,0.00019173,0.03526262,0.14494359,0.26850
736,0.00039682,0.00430201,-0.00073009,-0.00001054,0.00002894,0.00002091,0.003501
50,-0.00860864,-0.01530565,-0.00004482,0.00004240,0.00002991,0.00385770,0.004802
79,0.01260787,-0.04813982,-0.01017450,-0.03307658,-0.00061089,-0.00063322,-0.000
18317,0.00667766,0.00518913,-0.00534768,0.03943611,0.00428141,-0.00673667,-0.000
57344,0.00003564,0.00002408,-0.00004743,0.00351180,0.01094080,0.01366502,-0.0000
4041,0.00005621,0.00008848,-0.00785883,-0.00486377,-0.02392217,-0.01036267,-0.13
346195,-0.13028939,-0.00002568,0.00006928,0.00117530,0.00526932,0.00105818,0.000
41776,0.00824964,0.13367758,-0.00062374,-0.00079067,0.00028499,-0.00001584,0.000
01555,0.00001716,-0.00192188,-0.01436172,-0.01427804,-0.00004024,-0.00001192,-0.
00004173,-0.00169355,0.00525763,0.00287120,-0.03303047,-0.12976782,-0.25822525,0
.00051209,-0.00031123,-0.00013673,-0.00522250,0.00013557,-0.00016541,0.03918827,
0.13846683,0.26992387,0.00001644,0.00012161,0.00012312,-0.09926085,0.10011098,0.
07018069,-0.00006042,-0.00004715,0.00003752,0.00470574,0.00806902,0.00792901,0.0
0004671,-0.00012291,-0.00017195,-0.00001807,-0.00003131,-0.00001467,0.00000412,0
.00000372,0.00003278,0.00002556,-0.00000503,-0.00000940,0.00000164,0.00002150,0.
00000297,0.08896926,0.00034084,0.00041423,0.00027042,0.09865184,-0.20901225,-0.1
1424933,-0.00001427,0.00000164,0.00003587,0.01203445,-0.01062896,-0.01581651,0.0
0004407,-0.00044484,-0.00035645,-0.00008548,0.00007109,-0.00005499,-0.00001640,0
.00000671,0.00007514,0.00003068,-0.00002503,-0.00000154,0.00000341,0.00002697,0.
00001175,-0.11094766,0.21464267,0.00018432,0.00024901,-0.00002840,0.07219522,-0.
11923405,-0.14429568,-0.00001924,0.00000652,0.00004033,-0.00712809,0.01401507,0.
01243751,0.00003335,-0.00021651,-0.00014631,-0.00005061,0.00000380,-0.00003247,-
0.00000215,-0.00000847,-0.00001644,0.00000375,0.00000059,0.00001603,0.00000318,0
.00002010,0.00000090,-0.07561563,0.12203539,0.14074265,0.00007660,0.00009292,-0.
00006155,-0.04429474,0.00526772,0.02019009,0.00011818,0.00003567,0.00000943,0.00
694348,0.00173677,-0.01141249,-0.00000350,-0.00015677,0.00005613,-0.00003139,0.0
0009840,-0.00010058,-0.00001963,0.00001985,-0.00005268,-0.00003768,-0.00000345,0
.00004445,-0.00001719,-0.00001953,0.00001233,0.00366207,-0.00147586,0.01113082,0
.03123279,0.00010251,0.00004903,0.00003339,0.00578437,-0.05828249,0.03123983,0.0
0008318,0.00003513,0.00004003,-0.00139686,0.00272783,0.02638573,-0.00011800,-0.0
0005416,-0.00003533,0.00003472,0.00008345,-0.00008830,0.00000342,0.00001047,0.00
001440,0.00001664,0.00000562,0.00001574,-0.00002459,-0.00001411,-0.00000203,0.00
128133,0.00601695,-0.01928769,-0.00848312,0.05156692,0.00003895,-0.00002967,0.00
009565,0.01864061,0.03432633,-0.33740549,-0.00001594,-0.00001505,-0.00007633,0.0
0151858,0.00093990,-0.00919803,0.00004678,0.00014421,-0.00010195,0.00003033,-0.0
0004445,0.00007601,0.00001966,-0.00000868,0.00003996,-0.00003588,-0.00001026,0.0
0000975,0.00000862,0.00000338,0.00001027,-0.00116851,0.00510304,-0.00822806,-0.0
1932969,-0.04024317,0.35311984,0.00025861,0.00000443,0.00019045,0.00594289,0.002
73102,-0.01179239,-0.00010566,-0.00011375,-0.00017110,-0.04362339,0.00348760,0.0
1862736,-0.00011779,0.00005935,-0.00019810,0.00012231,0.00000126,0.00005146,0.00
000199,-0.00001498,0.00008369,-0.00023776,-0.00029320,-0.00000598,0.00002054,-0.
00000239,0.00003497,-0.00575198,-0.00340370,-0.00079178,0.00824499,0.00596169,0.
00029123,0.03235986,0.00003133,-0.00015627,-0.00009793,-0.00099422,0.00095068,0.
02707656,-0.00005443,-0.00017956,-0.00014209,0.00367664,-0.05841384,0.03919774,-
0.00012412,0.00022878,0.00004168,0.00011646,-0.00005314,0.00007035,0.00000656,-0
.00001573,0.00000479,-0.00033114,-0.00006213,0.00002770,0.00001802,-0.00001559,0
.00003642,-0.00327575,-0.00067561,-0.00053855,0.00586053,-0.00123068,0.00203538,
-0.00712305,0.05431400,0.00026500,-0.00002222,0.00009386,0.00218403,-0.00152658,
-0.00545095,0.00009743,-0.00002328,-0.00023655,0.01720493,0.04086885,-0.33893536
,-0.00015385,0.00013954,-0.00022809,0.00010870,-0.00007229,0.00009582,0.00000410
,-0.00002879,0.00008485,-0.00015281,-0.00007829,0.00016978,0.00000002,-0.0000079
2,0.00005100,-0.00082955,-0.00039566,0.00057669,0.00067858,0.00141735,0.00058408
,-0.01882942,-0.04551892,0.35406866,0.00095915,0.00075339,0.00053341,-0.00494018
,0.01647883,0.00009253,-0.00114741,-0.00128083,0.00040966,-0.10096086,0.03374214
,0.04189815,-0.00050995,-0.00061185,-0.00097906,-0.00030636,0.00041636,-0.000515
70,-0.00004491,-0.00006275,0.00016824,0.00001771,-0.00009373,0.00024764,0.000015
23,0.00000178,0.00010062,0.01165990,0.00581379,0.00143488,-0.00777882,-0.0041064
5,0.00067184,0.00278978,0.00149482,-0.00148541,0.31204547,-0.00102469,-0.0025770
7,-0.00155805,0.01924600,-0.03439937,-0.00288683,-0.00091655,0.00048458,0.000273
12,0.03312150,-0.13265343,-0.06212267,-0.00064114,0.00363988,0.00143194,0.001095
70,-0.00144368,0.00038812,0.00031916,-0.00014386,0.00001887,-0.00004660,0.000381
65,-0.00002731,-0.00009441,-0.00006228,-0.00009122,0.00574933,0.00204449,0.00152
909,-0.00313904,-0.00223576,-0.00417905,-0.00241740,0.00634959,0.00767463,-0.265
42565,0.83241563,-0.00095918,-0.00063535,-0.00052455,-0.00720981,0.01233094,0.01
677930,0.00034340,0.00004888,0.00016047,0.04561278,-0.06757747,-0.18338073,0.000
49974,0.00020018,0.00109745,-0.00020936,0.00050634,-0.00013904,-0.00010255,0.000
10111,-0.00023728,0.00019678,-0.00011599,-0.00036792,-0.00020656,-0.00018102,-0.
00014041,-0.00055474,0.00474292,-0.00213794,-0.00247596,0.00263440,0.00088670,0.
01307893,-0.02329153,-0.01288829,0.01877680,-0.18317033,0.66011981,-0.00068032,-
0.00013339,-0.00006009,0.00155354,0.00032106,0.00533616,-0.00124180,-0.00023723,
-0.00004915,0.00487140,0.03896377,-0.00633989,0.00051217,-0.00005995,0.00043559,
-0.00026375,0.00002382,0.00039403,-0.00005904,0.00003741,-0.00012253,0.00017456,
0.00002065,-0.00018730,0.00003914,0.00001839,-0.00004946,-0.00310607,-0.00053316
,-0.00103873,0.00158414,0.00048403,-0.00020542,-0.00095198,-0.00186676,-0.000269
54,-0.14973915,0.21664491,-0.08610928,0.13060237,0.00071398,0.00184833,0.0010584
1,0.00068208,0.00293052,-0.01160134,0.00002258,-0.00084663,0.00001990,0.03676852
,-0.06230459,0.01207135,0.00053528,-0.00269001,-0.00101780,-0.00104384,0.0012257
3,-0.00041816,-0.00022487,0.00010730,-0.00003905,0.00005070,-0.00022718,0.000055
18,0.00002055,-0.00001029,0.00007144,-0.00045484,-0.00233215,0.00116746,0.000062
54,0.00117686,0.00095548,-0.00141426,0.00139286,-0.00076790,0.21527551,-0.611322
05,0.23487072,-0.26244746,0.68382419,0.00009800,-0.00025943,-0.00004610,0.003114
89,-0.00583651,-0.00030414,0.00005685,0.00019921,-0.00007564,0.00194726,-0.00706
642,0.02984572,-0.00026299,0.00057774,-0.00013589,0.00021664,-0.00048150,0.00025
372,0.00011192,-0.00005730,0.00009311,-0.00022433,0.00016515,0.00009886,0.000102
20,0.00004799,0.00006496,0.00005558,-0.00096169,0.00058848,0.00077496,-0.0010886
4,-0.00024357,-0.00219770,0.00324456,0.00316890,-0.08427239,0.23143902,-0.215172
41,0.09649700,-0.26491708,0.19494043,-0.00077497,-0.00065278,0.00120677,0.000032
50,-0.00006905,0.00004147,-0.10059550,0.12097969,0.00046529,-0.00001209,0.000169
76,-0.00002551,0.00827207,0.00362078,-0.00673690,0.00228896,0.01596834,0.0008857
5,-0.00175833,-0.00005114,0.00063729,0.00546771,-0.00316426,-0.00191292,-0.00511
864,-0.00306811,0.00274691,-0.00001749,0.00000221,-0.00000658,0.00000235,-0.0000
0069,-0.00000177,0.00001457,-0.00000027,-0.00001314,0.00014306,-0.00045824,0.000
13352,-0.00022518,0.00032239,-0.00006176,0.09231078,-0.00065458,0.00001590,0.000
43880,-0.00000991,-0.00002054,0.00007069,0.12200391,-0.29669659,-0.01378447,-0.0
0013897,0.00015984,-0.00002408,0.00499676,0.00291301,-0.00061491,0.00386638,-0.0
0237052,-0.00526223,-0.00058994,-0.00075256,0.00024525,0.00677760,-0.00612013,0.
00293800,-0.00311126,-0.00068225,0.00134644,-0.00000823,0.00002102,-0.00000372,0
.00001441,-0.00000064,-0.00000450,0.00003544,-0.00000423,0.00002382,0.00037451,-
0.00090290,0.00019244,0.00014312,0.00068238,-0.00022299,-0.13363317,0.30372377,0
.00140735,0.00006574,0.00160441,-0.00002921,0.00003608,0.00001617,0.00260277,-0.
01841679,-0.05526220,-0.00002254,-0.00000948,-0.00001197,-0.00582938,-0.00290455
,-0.00336078,-0.01291646,0.02321905,0.00627724,-0.00001210,0.00146373,-0.0003984
5,0.00917387,-0.01928533,0.00384794,0.00281534,0.00107653,-0.00028039,-0.0000017
5,0.00000554,-0.00000961,0.00000337,0.00000617,0.00000711,0.00006984,0.00000474,
0.00003846,0.00005485,-0.00007919,0.00007131,0.00004648,0.00010293,-0.00018102,0
.00267897,0.01469323,0.04767775,-0.00000663,-0.00008239,-0.00007268,-0.00079379,
-0.00123355,0.00050097,-0.00003727,0.00006126,-0.00003671,0.01348371,0.00400171,
0.01392490,-0.00004161,0.00014722,0.00007383,0.00008488,-0.00005932,-0.00000328,
0.00000266,-0.00000381,0.00000050,-0.00001087,0.00004079,0.00001431,-0.00000444,
-0.00001184,-0.00000048,-0.00087658,-0.00044477,-0.00033271,0.00031836,0.0003778
1,-0.00050939,0.00103301,0.00256538,0.00119092,-0.06220267,-0.00201290,0.0191854
9,0.01692995,0.01113114,-0.01595613,-0.00002979,-0.00006607,-0.00004140,0.032151
10,-0.00002977,0.00000141,0.00001752,-0.00093536,0.00101588,-0.00167810,-0.00007
210,-0.00003105,-0.00005799,0.00744126,0.00660869,-0.02027195,0.00004735,-0.0000
2840,0.00000741,-0.00002784,0.00001889,0.00006430,-0.00001126,0.00000693,-0.0000
0288,-0.00000304,-0.00002640,-0.00000706,-0.00001028,-0.00000621,-0.00000503,-0.
00046461,-0.00012694,0.00026197,0.00008893,0.00014558,0.00102712,0.00250193,-0.0
0242912,-0.00168233,-0.00276986,-0.05957542,0.01934375,0.00862077,-0.01345527,0.
04521789,0.00003454,0.00003444,0.00002160,-0.01441066,0.06784699,0.00022009,0.00
018268,0.00020920,-0.00049766,0.00021514,0.00045655,-0.00007447,0.00002873,-0.00
012705,0.00169995,0.00597729,-0.01615143,-0.00003866,-0.00013830,-0.00032646,-0.
00003957,-0.00012926,0.00011738,0.00003133,-0.00002053,0.00006597,-0.00008078,0.
00000062,0.00005705,0.00007340,0.00005997,0.00004362,0.00000454,-0.00044390,0.00
049232,0.00053280,-0.00104188,0.00042406,0.00155853,-0.00215091,-0.00119286,0.02
286394,0.01135985,-0.26412647,-0.00827789,0.02838847,-0.01289540,-0.00003741,-0.
00003174,-0.00003597,-0.01793815,-0.04225623,0.29298950\\0.00000139,0.00000232,0
.00000605,-0.00000532,0.00000927,0.00000228,0.00000469,-0.00001517,-0.00000282,0
.00000091,0.00000105,-0.00000100,-0.00000591,-0.00000189,-0.00001194,-0.00000098
,-0.00000396,-0.00000510,0.00000269,-0.00000383,0.00000259,0.00000100,0.00000623
,0.00000571,0.00000138,0.00000232,0.00000554,0.00000371,-0.00000609,-0.00000712,
-0.00000007,-0.00000178,-0.00000103,0.00000022,0.00000078,-0.00000142,-0.0000023
3,0.00000419,0.00000513,0.00000269,-0.00000155,0.,-0.00000461,0.00001019,0.00000
348,0.00000054,-0.00000209,-0.00000034\\\@
